EOG,116.4100,117.7999,115.8700,117.6200,3.44 M,04/26/18,2.219999999999999,1.92374350086655
EOG,113.9300,115.8400,113.0700,115.4000,3.51 M,04/25/18,0.8100000000000023,0.7068679640457302
EOG,115.3200,116.4260,113.3700,114.5900,3.63 M,04/24/18,-0.25,-0.21769418321142459
EOG,113.6500,114.9600,112.8100,114.8400,2.15 M,04/23/18,0.8700000000000045,0.7633587786259582
EOG,113.5300,114.5700,112.6600,113.9700,3.11 M,04/20/18,-0.07000000000000739,-0.06138197123816853
EOG,113.4100,114.7100,112.4750,114.0400,4.96 M,04/19/18,1.190000000000012,1.0544971200709012
EOG,112.1100,114.1800,111.6000,112.8500,5.11 M,04/18/18,1.6999999999999886,1.529464687359414
EOG,111.1600,111.8600,110.3600,111.1500,3.72 M,04/17/18,0.13000000000000966,0.1170960187353717
EOG,111.6500,111.6900,110.7000,111.0200,2.75 M,04/16/18,0.0,0.0
EOG,110.4500,111.2500,109.6150,111.0200,3.34 M,04/13/18,1.039999999999992,0.9456264775413639
EOG,109.4700,110.8400,108.2100,109.9800,4.38 M,04/12/18,0.5799999999999983,0.5301645338208394
EOG,107.4300,110.1400,106.9410,109.4000,3.47 M,04/11/18,1.740000000000009,1.6161991454579316
EOG,105.0900,109.0800,105.0000,107.6600,5.45 M,04/10/18,4.280000000000001,4.1400657767459865
EOG,102.4800,105.3200,101.8250,103.3800,4.63 M,04/09/18,1.4499999999999886,1.4225448837437344
EOG,104.0700,104.0700,98.8000,101.9300,6.47 M,04/06/18,-2.4499999999999886,-2.3471929488407635
EOG,104.6000,105.3800,103.7800,104.3800,3.84 M,04/05/18,0.20999999999999375,0.2015935490064258
EOG,103.5500,104.5550,103.0500,104.1700,4.24 M,04/04/18,-0.8999999999999915,-0.8565718092700024
EOG,103.4800,105.3050,101.7900,105.0700,3.48 M,04/03/18,2.1399999999999864,2.079082871854645
EOG,104.9400,105.1400,100.2400,102.9300,3.76 M,04/02/18,-2.339999999999989,-2.2228555143915543
EOG,104.6500,105.8600,104.1700,105.2700,3.39 M,03/29/18,1.4500000000000028,1.3966480446927403
EOG,105.8000,107.2000,103.2600,103.8200,5.51 M,03/28/18,-2.510000000000005,-2.3605755666321877
EOG,107.4600,107.9100,105.4900,106.3300,5.20 M,03/27/18,-1.2399999999999949,-1.1527377521613786
EOG,106.8700,107.6500,105.7200,107.5700,4.82 M,03/26/18,1.7099999999999937,1.6153410164367974
EOG,104.7500,106.7300,104.7000,105.8600,6.58 M,03/23/18,1.5699999999999932,1.5054175855786682
EOG,103.5200,105.0800,103.1600,104.2900,6.67 M,03/22/18,-0.4899999999999949,-0.4676464974231675
EOG,101.7200,105.8300,101.6400,104.7800,5.29 M,03/21/18,3.450000000000003,3.4047172604362013
EOG,99.3500,101.6700,99.2400,101.3300,4.56 M,03/20/18,2.8599999999999994,2.9044378998679794
EOG,99.8800,100.4000,97.4400,98.4700,2.61 M,03/19/18,-1.980000000000004,-1.9711299153807904
EOG,98.8700,100.8600,98.5500,100.4500,4.95 M,03/16/18,1.7999999999999972,1.824632539280281
EOG,100.3900,100.7200,98.1800,98.6500,3.84 M,03/15/18,-1.2399999999999949,-1.2413655020522523
EOG,100.8000,100.8989,99.6400,99.8900,2.19 M,03/14/18,-0.1599999999999966,-0.1599200399800066
EOG,101.3700,101.7700,99.6800,100.0500,3.21 M,03/13/18,-0.6000000000000085,-0.5961251862891291
EOG,102.5000,102.8200,100.4900,100.6500,5.21 M,03/12/18,-2.1499999999999915,-2.091439688715945
EOG,101.5800,102.9000,101.2800,102.8000,2.91 M,03/09/18,2.2099999999999937,2.197037478874633
EOG,101.5300,101.6000,99.6550,100.5900,2.53 M,03/08/18,-0.28000000000000114,-0.277585010409439
EOG,99.9800,101.1000,99.3300,100.8700,3.33 M,03/07/18,-0.14000000000000057,-0.13860013860013914
EOG,102.7100,102.9400,100.7400,101.0100,3.42 M,03/06/18,-0.7999999999999972,-0.7857774285433623
EOG,100.9100,102.7600,100.4000,101.8100,3.13 M,03/05/18,0.35999999999999943,0.35485460818136955
EOG,100.5400,102.2100,99.4000,101.4500,4.04 M,03/02/18,0.269999999999996,0.26685115635500695
EOG,101.7900,102.1100,99.8400,101.1800,4.60 M,03/01/18,-0.23999999999999488,-0.23663971603233572
EOG,101.6300,106.4000,101.3100,101.4200,7.74 M,02/28/18,-5.519999999999996,-5.161772956798201
EOG,109.2800,109.5300,106.7400,106.9400,3.58 M,02/27/18,-2.549999999999997,-2.328979815508263
EOG,109.5600,110.1600,108.5700,109.4900,4.47 M,02/26/18,0.6599999999999966,0.6064504272718888
EOG,107.7300,108.8800,107.3300,108.8300,2.06 M,02/23/18,1.7399999999999949,1.6248015687739237
EOG,106.7000,109.1100,105.9401,107.0900,3.17 M,02/22/18,1.2800000000000011,1.209715527832909
EOG,107.6500,108.7400,105.7800,105.8100,4.12 M,02/21/18,-2.1499999999999915,-1.991478325305661
EOG,107.7800,109.0300,106.1500,107.9600,3.38 M,02/20/18,0.3199999999999932,0.2972872538089866
EOG,107.1400,108.7400,106.6000,107.6400,2.97 M,02/16/18,-0.04999999999999716,-0.04642956634784767
EOG,106.6000,108.0600,105.0100,107.6900,3.50 M,02/15/18,0.9299999999999926,0.8711127763207124
EOG,101.5800,107.0600,101.5000,106.7600,4.09 M,02/14/18,4.290000000000006,4.186591197423643
EOG,102.4900,103.2400,101.6100,102.4700,1.74 M,02/13/18,-0.6700000000000017,-0.6496024820632167
EOG,101.5400,104.0300,101.3300,103.1400,3.55 M,02/12/18,3.0700000000000074,3.0678525032477344
EOG,101.8900,102.5999,96.5400,100.0700,5.34 M,02/09/18,-0.9700000000000131,-0.9600158353127604
EOG,106.0200,106.5000,100.9800,101.0400,4.68 M,02/08/18,-4.739999999999995,-4.480998298355072
EOG,108.4200,109.7100,105.7600,105.7800,4.67 M,02/07/18,-2.489999999999995,-2.2998060404544147
EOG,107.7600,110.9000,106.0900,108.2700,4.64 M,02/06/18,-1.2900000000000063,-1.1774370208105205
EOG,111.7000,113.8800,109.0000,109.5600,3.18 M,02/05/18,-3.269999999999996,-2.8981653815474573
EOG,115.0100,115.1900,112.4100,112.8300,2.55 M,02/02/18,-3.6899999999999977,-3.1668383110195655
EOG,115.2800,116.5700,114.5800,116.5200,2.51 M,02/01/18,1.519999999999996,1.3217391304347792
EOG,115.3200,115.7300,114.4300,115.0000,2.41 M,01/31/18,-0.1700000000000017,-0.1476078839975703
EOG,115.9800,115.9800,113.9000,115.1700,3.59 M,01/30/18,-1.4099999999999966,-1.2094698919197089
EOG,117.1200,118.1300,116.4200,116.5800,1.58 M,01/29/18,-1.1800000000000068,-1.0020380434782665
EOG,117.0600,118.0600,116.8000,117.7600,2.17 M,01/26/18,0.3100000000000023,0.2639421030225647
EOG,118.9200,119.0000,117.0300,117.4500,2.06 M,01/25/18,-1.019999999999996,-0.8609774626487685
EOG,117.9900,118.9000,117.2000,118.4700,2.46 M,01/24/18,0.6299999999999955,0.534623217922603
EOG,117.0500,118.6000,116.8800,117.8400,3.15 M,01/23/18,1.0200000000000102,0.8731381612737633
EOG,114.5300,116.8600,114.4100,116.8200,2.23 M,01/22/18,2.4499999999999886,2.142170149514723
EOG,113.9500,114.7600,113.4700,114.3700,2.92 M,01/19/18,0.13000000000000966,0.11379551820729138
EOG,113.3600,115.1600,112.8200,114.2400,4.56 M,01/18/18,0.7099999999999937,0.6253853606976074
EOG,113.7100,114.3500,112.1400,113.5300,3.32 M,01/17/18,0.14000000000000057,0.12346767792574351
EOG,115.8200,116.4400,113.0800,113.3900,4.84 M,01/16/18,-2.3100000000000023,-1.996542783059639
EOG,114.9500,116.4700,114.7900,115.7000,2.03 M,01/12/18,0.5600000000000023,0.4863644259162778
EOG,112.7900,115.7200,112.4600,115.1400,3.83 M,01/11/18,3.1299999999999955,2.7943933577359124
EOG,111.9400,113.7500,111.8600,112.0100,4.75 M,01/10/18,0.30000000000001137,0.268552502014154
EOG,112.9300,113.1000,111.5400,111.7100,1.94 M,01/09/18,-1.0,-0.8872327211427558
EOG,112.4400,113.2200,111.6500,112.7100,1.93 M,01/08/18,0.539999999999992,0.48141214228402607
EOG,110.6600,112.3000,110.1200,112.1700,2.22 M,01/05/18,1.2199999999999989,1.09959441189725
EOG,110.3900,111.2100,109.7510,110.9500,2.12 M,01/04/18,0.01999999999999602,0.01802938790227713
EOG,110.1400,111.8300,109.8200,110.9300,3.07 M,01/03/18,1.6300000000000097,1.4913083257090665
EOG,108.6700,109.3900,108.2200,109.3000,1.90 M,01/02/18,1.3900000000000006,1.2881104624223896
EOG,109.1100,109.1100,107.8800,107.9100,1.78 M,12/29/17,-0.5400000000000063,-0.4979253112033252
EOG,108.5000,108.6300,107.8600,108.4500,1.25 M,12/28/17,0.09000000000000341,0.08305647840531877
EOG,109.0600,109.3000,107.7210,108.3600,1.80 M,12/27/17,-1.0499999999999972,-0.9596928982725502
EOG,107.2400,109.6600,107.0000,109.4100,2.07 M,12/26/17,2.299999999999997,2.1473251797217787
EOG,106.7000,107.8800,105.8800,107.1100,2.03 M,12/22/17,0.7600000000000051,0.7146215326751342
EOG,103.7300,106.7500,103.2400,106.3500,3.33 M,12/21/17,2.809999999999988,2.7139269847401852
EOG,102.0500,103.8200,101.2100,103.5400,2.65 M,12/20/17,2.1099999999999994,2.0802523908113963
EOG,100.3400,101.8000,99.6800,101.4300,2.37 M,12/19/17,1.5200000000000102,1.5213692323090884
EOG,98.7000,100.1700,98.6800,99.9100,2.67 M,12/18/17,1.3599999999999994,1.3800101471334343
EOG,100.5400,100.6400,98.4700,98.5500,4.63 M,12/15/17,-1.0900000000000034,-1.093938177438783
EOG,99.7600,100.8300,99.5500,99.6400,2.43 M,12/14/17,-0.29999999999999716,-0.3001801080648361
EOG,100.4600,100.7200,99.7100,99.9400,1.43 M,12/13/17,-0.3400000000000034,-0.33905065815716334
EOG,101.3700,101.4200,99.4400,100.2800,2.13 M,12/12/17,-0.9299999999999926,-0.9188815334453044
EOG,100.4900,102.3400,100.3950,101.2100,1.95 M,12/11/17,0.8199999999999932,0.8168144237473784
EOG,100.2800,100.7400,99.7500,100.3900,1.51 M,12/08/17,0.6700000000000017,0.6718812675491393
EOG,98.8900,99.8300,98.5100,99.7200,1.69 M,12/07/17,0.8599999999999994,0.8699170544203919
EOG,100.4300,100.4500,98.4910,98.8600,2.77 M,12/06/17,-2.0400000000000063,-2.0218037661050605
EOG,100.6900,101.7700,100.5200,100.9000,2.05 M,12/05/17,-0.14999999999999147,-0.14844136566055563
EOG,102.6900,103.0300,100.9900,101.0500,2.42 M,12/04/17,-1.8599999999999994,-1.8074045282285487
EOG,103.3200,104.4200,101.6600,102.9100,3.45 M,12/01/17,0.5900000000000034,0.5766223612197062
EOG,101.0000,102.7300,101.0000,102.3200,4.18 M,11/30/17,1.8199999999999932,1.810945273631834
EOG,99.5600,100.5300,99.2500,100.5000,2.72 M,11/29/17,0.6599999999999966,0.6610576923076888
EOG,99.7500,100.1800,99.1100,99.8400,2.04 M,11/28/17,0.020000000000010232,0.020036064916860583
EOG,101.5700,101.7850,99.2200,99.8200,2.95 M,11/27/17,-1.8400000000000034,-1.809954751131225
EOG,102.0900,102.5500,101.3800,101.6600,913550,11/24/17,0.06999999999999318,0.0689044197263443
EOG,102.4100,102.8200,101.5400,101.5900,2.65 M,11/22/17,-0.06999999999999318,-0.06885697422781151
EOG,102.3000,102.6199,101.3350,101.6600,4.06 M,11/21/17,0.21999999999999886,0.21687697160883168
EOG,101.3800,102.0000,100.7000,101.4400,1.66 M,11/20/17,-0.20000000000000284,-0.1967729240456541
EOG,101.7600,102.2100,101.1100,101.6400,2.60 M,11/17/17,0.20999999999999375,0.2070393374741139
EOG,101.2900,102.1600,100.8100,101.4300,2.03 M,11/16/17,0.07000000000000739,0.06906077348067027
EOG,101.1800,102.3298,100.0800,101.3600,3.36 M,11/15/17,-1.1099999999999994,-1.0832438762564647
EOG,103.8500,104.0600,102.3600,102.4700,2.43 M,11/14/17,-1.9899999999999949,-1.9050354202565527
EOG,104.2000,105.0000,103.7400,104.4600,1.82 M,11/13/17,-0.12000000000000455,-0.11474469305795042
EOG,104.5300,105.1200,103.2100,104.5800,3.38 M,11/10/17,-0.20000000000000284,-0.1908761213972159
EOG,103.8300,105.4400,103.5600,104.7800,3.05 M,11/09/17,0.45000000000000284,0.43132368446276514
EOG,105.5100,105.7900,103.8000,104.3300,3.43 M,11/08/17,-1.7600000000000051,-1.6589688000754124
EOG,107.3500,107.9530,105.5500,106.0900,4.02 M,11/07/17,-0.8699999999999903,-0.8133881824981212
EOG,105.1500,107.1900,105.0600,106.9600,4.71 M,11/06/17,2.4599999999999937,2.354066985645927
EOG,103.8000,105.0700,103.3100,104.5000,4.08 M,11/03/17,1.5499999999999972,1.5055852355512356
EOG,101.3700,102.9900,101.3700,102.9500,2.97 M,11/02/17,0.6599999999999966,0.6452243621077295
EOG,100.7900,102.4700,96.7100,102.2900,3.95 M,11/01/17,2.4200000000000017,2.4231500951236624
EOG,99.2500,100.4100,99.0600,99.8700,3.27 M,10/31/17,0.3400000000000034,0.34160554606651605
EOG,98.6600,99.6900,98.2800,99.5300,3.51 M,10/30/17,1.0600000000000023,1.0764699908601627
EOG,96.2100,98.5600,95.8400,98.4700,2.91 M,10/27/17,1.5499999999999972,1.5992571192736247
EOG,96.4500,97.1900,95.7400,96.9200,1.98 M,10/26/17,0.769999999999996,0.800832033281327
EOG,96.3200,96.8700,95.6700,96.1500,1.96 M,10/25/17,-0.3299999999999983,-0.34203980099502307
EOG,97.7000,97.9700,96.2300,96.4800,2.19 M,10/24/17,-0.4899999999999949,-0.5053109209033669
EOG,97.0700,97.4900,96.6700,96.9700,2.40 M,10/23/17,0.12999999999999545,0.1342420487401853
EOG,95.7800,97.0400,95.4200,96.8400,2.19 M,10/20/17,1.0799999999999983,1.1278195488721785
EOG,95.6900,96.6900,95.3600,95.7600,1.88 M,10/19/17,-0.8999999999999915,-0.9310986964618162
EOG,97.5400,98.4600,96.5700,96.6600,2.04 M,10/18/17,-0.7900000000000063,-0.8106721395587545
EOG,97.2500,97.7700,96.5600,97.4500,1.70 M,10/17/17,0.2400000000000091,0.24688818022838094
EOG,97.1300,97.4825,96.7400,97.2100,2.08 M,10/16/17,0.5899999999999892,0.6106396191264637
EOG,97.5000,97.6250,96.3000,96.6200,1.95 M,10/13/17,-0.030000000000001137,-0.03103983445421742
EOG,96.0800,96.8900,95.7200,96.6500,2.20 M,10/12/17,-0.28000000000000114,-0.28886825544207273
EOG,96.7700,97.1200,96.0400,96.9300,2.16 M,10/11/17,0.15000000000000568,0.1549907005579724
EOG,97.1000,97.8300,96.7000,96.7800,2.20 M,10/10/17,0.28000000000000114,0.29015544041450897
EOG,96.5300,97.0200,96.1100,96.5000,1.88 M,10/09/17,0.3100000000000023,0.3222788231624933
EOG,95.7900,96.3400,95.4600,96.1900,1.59 M,10/06/17,-0.35999999999999943,-0.3728638011393055
EOG,96.5000,97.0700,96.1500,96.5500,2.10 M,10/05/17,0.21999999999999886,0.22838160489982234
EOG,96.6500,96.9800,95.9775,96.3300,1.51 M,10/04/17,-0.1700000000000017,-0.17616580310881005
EOG,96.9800,97.7100,96.4800,96.5000,2.13 M,10/03/17,-0.6800000000000068,-0.6997324552377102
EOG,95.5200,97.1800,94.8700,97.1800,2.12 M,10/02/17,0.44000000000001194,0.45482737233823856
EOG,96.7300,97.4500,96.0500,96.7400,2.01 M,09/29/17,-0.0799999999999983,-0.08262755629002097
EOG,97.4500,98.3700,96.8100,96.8200,2.98 M,09/28/17,-0.5,-0.5137690094533498
EOG,96.9000,97.5100,96.2800,97.3200,2.12 M,09/27/17,0.44999999999998863,0.46454010529574546
EOG,95.9900,97.5000,95.4700,96.8700,2.95 M,09/26/17,0.5799999999999983,0.602347076539618
EOG,95.0000,96.8000,94.7400,96.2900,3.14 M,09/25/17,1.740000000000009,1.8402961396086823
EOG,93.7700,94.6500,93.4500,94.5500,2.29 M,09/22/17,0.6599999999999966,0.7029502609436539
EOG,93.6600,94.4400,93.1400,93.8900,2.68 M,09/21/17,-0.29000000000000625,-0.30792100233595904
EOG,93.5800,94.2800,92.8200,94.1800,3.77 M,09/20/17,1.0500000000000114,1.1274562439600682
EOG,93.0800,93.6400,92.7100,93.1300,2.07 M,09/19/17,0.0799999999999983,0.08597528210639258
EOG,92.7700,93.3800,92.3800,93.0500,2.39 M,09/18/17,-0.1700000000000017,-0.18236429950654548
EOG,92.4300,93.2900,91.8600,93.2200,4.06 M,09/15/17,1.4399999999999977,1.568969274351708
EOG,91.5000,92.9486,91.1700,91.7800,3.43 M,09/14/17,0.6800000000000068,0.7464324917672962
EOG,89.3200,91.1100,89.0700,91.1000,3.16 M,09/13/17,2.6299999999999955,2.97275912738781
EOG,87.8500,88.7500,87.4300,88.4700,2.92 M,09/12/17,0.539999999999992,0.6141248720573093
EOG,87.1100,87.9900,86.4800,87.9300,2.87 M,09/11/17,1.1500000000000057,1.3251901359760379
EOG,87.8700,88.0700,86.0800,86.7800,2.69 M,09/08/17,-1.8199999999999932,-2.0541760722347555
EOG,87.7500,88.7400,87.4010,88.6000,2.79 M,09/07/17,0.75,0.8537279453614115
EOG,86.7200,87.9650,86.4600,87.8500,2.60 M,09/06/17,1.9799999999999898,2.3058111098171534
EOG,85.9200,86.6800,85.2600,85.8700,2.66 M,09/05/17,0.21999999999999886,0.25685931115002786
EOG,85.0000,85.8550,84.5900,85.6500,2.36 M,09/01/17,0.6600000000000108,0.776561948464538
EOG,84.0000,85.1800,83.6100,84.9900,4.80 M,08/31/17,1.3199999999999932,1.5776263893868687
EOG,82.9200,83.9800,82.3200,83.6700,2.25 M,08/30/17,0.519999999999996,0.625375826818997
EOG,82.6200,83.2400,81.9900,83.1500,2.32 M,08/29/17,-0.25,-0.29976019184652275
EOG,84.3500,84.4200,82.2500,83.4000,2.38 M,08/28/17,-1.1099999999999994,-1.3134540291089805
EOG,85.0100,85.2200,84.4600,84.5100,2.21 M,08/25/17,-0.10999999999999943,-0.12999290947766418
EOG,84.8000,85.1400,84.3300,84.6200,2.01 M,08/24/17,-0.4899999999999949,-0.5757255316648983
EOG,84.1600,85.7200,83.9600,85.1100,2.32 M,08/23/17,0.8700000000000045,1.0327635327635383
EOG,83.9100,84.5300,83.8500,84.2400,1.95 M,08/22/17,0.5499999999999972,0.6571872386187085
EOG,83.8100,84.3200,83.4100,83.6900,2.52 M,08/21/17,-0.4000000000000057,-0.475680818171014
EOG,83.3500,84.5400,83.2900,84.0900,2.75 M,08/18/17,0.710000000000008,0.8515231470376685
EOG,84.7800,85.0300,83.3700,83.3800,3.44 M,08/17/17,-1.6000000000000085,-1.8827959519887132
EOG,87.2300,87.2300,84.8400,84.9800,3.48 M,08/16/17,-2.039999999999992,-2.344288669271423
EOG,87.7500,87.9100,86.2500,87.0200,4.46 M,08/15/17,-0.9699999999999989,-1.1023979997727003
EOG,88.9300,89.0400,87.7300,87.9900,2.48 M,08/14/17,-0.5400000000000063,-0.6099627245001765
EOG,89.1500,89.5500,87.9350,88.5300,2.87 M,08/11/17,-0.5900000000000034,-0.6620287253141869
EOG,90.6300,90.9600,88.8900,89.1200,3.38 M,08/10/17,-1.2299999999999898,-1.3613724405091199
EOG,91.5200,92.3500,90.2700,90.3500,3.29 M,08/09/17,-0.8000000000000114,-0.8776741634668254
EOG,89.8100,92.3500,89.7100,91.1500,3.83 M,08/08/17,1.480000000000004,1.6504962640794067
EOG,89.8900,90.2300,88.8500,89.6700,3.89 M,08/07/17,-0.7800000000000011,-0.8623548922056397
EOG,88.8200,91.2400,88.5600,90.4500,3.79 M,08/04/17,1.5499999999999972,1.743532058492685
EOG,92.3900,92.5000,87.7600,88.9000,6.30 M,08/03/17,-3.4199999999999875,-3.7045060658578723
EOG,92.6200,93.2800,89.8500,92.3200,5.36 M,08/02/17,-2.1400000000000006,-2.265509210247725
EOG,94.9100,95.5800,94.0500,94.4600,3.80 M,08/01/17,-0.6800000000000068,-0.7147361782636187
EOG,95.3200,95.9000,94.7700,95.1400,3.00 M,07/31/17,-0.28000000000000114,-0.29343953049675237
EOG,96.0100,96.9000,95.0300,95.4200,2.98 M,07/28/17,-0.5600000000000023,-0.5834548864346762
EOG,94.6200,95.9900,94.3000,95.9800,2.62 M,07/27/17,1.230000000000004,1.2981530343007956
EOG,95.6600,96.1000,94.6500,94.7500,2.86 M,07/26/17,-0.12000000000000455,-0.12648887951934704
EOG,94.7800,95.6490,94.4400,94.8700,2.81 M,07/25/17,1.5600000000000023,1.6718465330618393
EOG,93.0200,94.6800,92.9000,93.3100,2.59 M,07/24/17,0.4000000000000057,0.430524163168664
EOG,93.3900,93.8000,92.3800,92.9100,2.67 M,07/21/17,-0.75,-0.8007687379884689
EOG,95.0000,95.7400,93.5700,93.6600,4.08 M,07/20/17,-0.6500000000000057,-0.6892164139539876
EOG,91.5600,94.5500,91.5600,94.3100,3.94 M,07/19/17,2.6099999999999994,2.8462377317339143
EOG,92.2500,92.4500,91.2500,91.7000,2.20 M,07/18/17,-0.20000000000000284,-0.21762785636561788
EOG,91.3100,92.1300,91.3100,91.9000,4.13 M,07/17/17,0.030000000000001137,0.03265483835855136
EOG,91.9800,92.3600,91.5900,91.8700,1.77 M,07/14/17,0.060000000000002274,0.06535235813092503
EOG,90.3700,91.9200,90.3700,91.8100,2.47 M,07/13/17,1.240000000000009,1.369106768245566
EOG,91.4600,92.3000,90.4100,90.5700,3.17 M,07/12/17,-0.060000000000002274,-0.0662032439589565
EOG,89.6200,90.9900,88.9200,90.6300,2.52 M,07/11/17,1.009999999999991,1.126980584690907
EOG,88.1300,89.7800,88.0000,89.6200,2.06 M,07/10/17,1.1800000000000068,1.3342379014020882
EOG,88.0700,88.6000,87.0400,88.4400,3.81 M,07/07/17,-0.18999999999999773,-0.21437436533904744
EOG,90.5300,90.8400,88.4050,88.6300,3.29 M,07/06/17,-1.6700000000000017,-1.849390919158363
EOG,91.8200,92.1900,89.9600,90.3000,2.72 M,07/05/17,-2.0700000000000074,-2.2409873335498616
EOG,91.0000,93.1600,90.5200,92.3700,2.40 M,07/03/17,1.8500000000000085,2.0437472381794173
EOG,90.3400,91.2200,89.2500,90.5200,4.16 M,06/30/17,0.519999999999996,0.5777777777777734
EOG,89.4700,90.9100,89.3000,90.0000,4.08 M,06/29/17,0.980000000000004,1.1008762075938037
EOG,88.1800,89.5400,87.4933,89.0200,4.51 M,06/28/17,1.019999999999996,1.1590909090909045
EOG,88.1900,88.8300,87.6800,88.0000,3.91 M,06/27/17,0.6099999999999994,0.6980203684632103
EOG,88.0400,88.1900,86.8200,87.3900,2.55 M,06/26/17,-0.4000000000000057,-0.4556327599954501
EOG,87.6100,88.2300,87.2100,87.7900,3.73 M,06/23/17,0.10000000000000853,0.11403808872164276
EOG,87.3400,89.0300,86.6300,87.6900,3.36 M,06/22/17,0.5699999999999932,0.6542699724517828
EOG,88.1000,89.1650,86.6350,87.1200,4.61 M,06/21/17,-0.7299999999999898,-0.830961866818429
EOG,86.7900,88.2900,85.8800,87.8500,3.77 M,06/20/17,-0.21999999999999886,-0.24980129442488802
EOG,88.3700,89.0100,87.9600,88.0700,2.50 M,06/19/17,-0.45000000000000284,-0.5083596927248112
EOG,87.5700,88.5900,87.0700,88.5200,4.77 M,06/16/17,1.4799999999999898,1.7003676470588116
EOG,88.8600,89.1500,86.5700,87.0400,4.36 M,06/15/17,-1.8900000000000006,-2.1252670639829083
EOG,90.0300,90.0500,87.8400,88.9300,4.06 M,06/14/17,-1.6299999999999955,-1.7999116607773802
EOG,90.0500,90.7000,89.5100,90.5600,2.57 M,06/13/17,0.6800000000000068,0.7565643079661848
EOG,91.2600,91.9800,89.5100,89.8800,3.81 M,06/12/17,-0.20000000000000284,-0.2220248667850831
EOG,88.3300,90.8100,88.0400,90.0800,4.51 M,06/09/17,1.9699999999999989,2.235841561684257
EOG,87.6300,88.8000,87.6200,88.1100,3.50 M,06/08/17,-0.04000000000000625,-0.04537719795803318
EOG,90.2200,90.9400,87.4100,88.1500,4.53 M,06/07/17,-2.6799999999999926,-2.950566993284149
EOG,89.1000,91.0600,88.7700,90.8300,3.22 M,06/06/17,1.6299999999999955,1.827354260089681
EOG,89.1200,89.6300,88.5200,89.2000,2.37 M,06/05/17,-0.480000000000004,-0.5352363960749374
EOG,90.0400,90.5800,88.9428,89.6800,2.68 M,06/02/17,-0.7199999999999989,-0.7964601769911491
EOG,90.6400,91.3800,89.7300,90.4000,2.83 M,06/01/17,0.09000000000000341,0.0996567379027831
EOG,88.9900,90.6100,88.3600,90.3100,3.94 M,05/31/17,0.6899999999999977,0.7699174291452775
EOG,90.4700,90.7900,89.4300,89.6200,3.16 M,05/30/17,-1.5999999999999943,-1.7540013155009804
EOG,91.2900,91.4100,90.1200,91.2200,2.00 M,05/26/17,0.20000000000000284,0.21973192704900335
EOG,92.2800,93.6200,90.4400,91.0200,2.77 M,05/25/17,-1.6500000000000057,-1.7805114923923662
EOG,92.3700,93.3900,92.3100,92.6700,2.90 M,05/24/17,0.14000000000000057,0.15130228034151147
EOG,93.1200,93.3000,91.9700,92.5300,2.26 M,05/23/17,-0.5799999999999983,-0.6229191279132191
EOG,94.1300,94.7550,92.7900,93.1100,2.00 M,05/22/17,-0.7000000000000028,-0.7461891056390607
EOG,92.3800,94.3900,92.0700,93.8100,3.71 M,05/19/17,2.1200000000000045,2.3121387283237045
EOG,92.2300,93.0150,91.6650,91.6900,3.80 M,05/18/17,-1.2600000000000051,-1.3555675094136688
EOG,93.2800,94.3000,92.8300,92.9500,2.41 M,05/17/17,-0.8799999999999955,-0.9378663540445438
EOG,94.8700,95.0600,93.5200,93.8300,2.68 M,05/16/17,-0.9000000000000057,-0.9500686160667219
EOG,96.3200,96.6500,94.1200,94.7300,6.29 M,05/15/17,0.030000000000001137,0.03167898627244048
EOG,94.1200,95.0100,93.8000,94.7000,3.42 M,05/12/17,0.4200000000000017,0.44548154433602216
EOG,94.8200,94.9223,93.9800,94.2800,2.58 M,05/11/17,-0.2600000000000051,-0.27501586629998426
EOG,93.0100,95.7700,92.5700,94.5400,5.24 M,05/10/17,2.9000000000000057,3.1645569620253227
EOG,92.3600,92.4400,90.6000,91.6400,3.59 M,05/09/17,-0.04999999999999716,-0.05453157378121623
EOG,90.3900,92.1400,90.1700,91.6900,3.72 M,05/08/17,0.8100000000000023,0.8912852112676082
EOG,89.0300,91.0600,88.8700,90.8800,4.70 M,05/05/17,2.280000000000001,2.5733634311512428
EOG,91.0400,91.2400,88.2000,88.6000,5.46 M,05/04/17,-3.160000000000011,-3.443766346992165
EOG,91.5300,92.7500,91.0900,91.7600,3.51 M,05/03/17,-0.10999999999999943,-0.11973440731468317
EOG,92.2400,92.4400,91.0500,91.8700,3.35 M,05/02/17,-0.1599999999999966,-0.1738563511898257
EOG,92.5300,92.7100,91.7500,92.0300,2.68 M,05/01/17,-0.46999999999999886,-0.5081081081081069
EOG,93.9700,93.9700,92.4400,92.5000,1.63 M,04/28/17,-0.5,-0.5376344086021505
EOG,93.5700,93.7000,91.1600,93.0000,3.88 M,04/27/17,-1.3100000000000023,-1.3890361573534113
EOG,94.4200,96.4900,94.2100,94.3100,2.13 M,04/26/17,-0.9599999999999937,-1.00766243308491
EOG,93.8000,95.4300,93.4724,95.2700,2.27 M,04/25/17,1.5300000000000011,1.6321740985705155
EOG,94.4600,94.4600,93.3200,93.7400,2.18 M,04/24/17,0.1599999999999966,0.17097670442401858
EOG,93.0000,94.2500,92.8856,93.5800,2.41 M,04/21/17,0.28000000000000114,0.3001071811361213
EOG,93.7700,94.1000,93.1900,93.3000,2.74 M,04/20/17,0.009999999999990905,0.010719262514729237
EOG,94.9300,95.4200,92.9250,93.2900,3.11 M,04/19/17,-1.539999999999992,-1.6239586628703913
EOG,95.1100,95.9700,94.3000,94.8300,2.01 M,04/18/17,-0.9099999999999966,-0.9504909128890711
EOG,95.6600,96.1300,95.2000,95.7400,2.29 M,04/17/17,0.09999999999999432,0.10455876202425168
EOG,97.2500,97.7200,95.3300,95.6400,3.24 M,04/13/17,-1.8499999999999943,-1.8976305262078104
EOG,97.8200,98.8800,97.1800,97.4900,2.30 M,04/12/17,-0.39000000000000057,-0.39844707805476154
EOG,98.0900,98.6100,96.9100,97.8800,1.91 M,04/11/17,-0.6899999999999977,-0.700010145074564
EOG,98.1700,99.4300,98.0550,98.5700,2.90 M,04/10/17,1.2099999999999937,1.2428101889893115
EOG,98.2300,98.4800,97.0400,97.3600,2.87 M,04/07/17,-0.6899999999999977,-0.703722590515041
EOG,97.9700,98.8100,97.5597,98.0500,1.98 M,04/06/17,0.46999999999999886,0.48165607706497116
EOG,99.4000,100.5300,97.2200,97.5800,3.83 M,04/05/17,-0.6700000000000017,-0.6819338422391875
EOG,97.3700,98.3100,96.0100,98.2500,2.23 M,04/04/17,1.2900000000000063,1.330445544554462
EOG,97.5000,97.8100,95.9800,96.9600,2.28 M,04/03/17,-0.5900000000000034,-0.6048180420297319
EOG,97.1800,98.5000,96.6600,97.5500,4.00 M,03/31/17,0.37999999999999545,0.39106720181125393
EOG,98.1900,100.1550,97.1700,97.1700,7.51 M,03/30/17,0.1700000000000017,0.17525773195876465
EOG,95.1800,97.5600,94.5700,97.0000,3.48 M,03/29/17,1.7099999999999937,1.794521985517886
EOG,93.5000,95.6400,93.4500,95.2900,3.34 M,03/28/17,1.9100000000000108,2.045405868494336
EOG,93.3500,93.9900,93.0300,93.3800,2.76 M,03/27/17,-1.480000000000004,-1.560193970061147
EOG,94.9400,95.2500,94.3600,94.8600,2.86 M,03/24/17,0.04999999999999716,0.05273705305347237
EOG,94.4800,95.4400,93.9150,94.8100,2.35 M,03/23/17,0.1599999999999966,0.16904384574748715
EOG,94.3400,95.3300,93.9300,94.6500,2.04 M,03/22/17,0.12000000000000455,0.1269438273563996
EOG,96.4900,96.5920,94.2600,94.5300,2.84 M,03/21/17,-1.6899999999999977,-1.7563916025774244
EOG,95.7500,96.5500,95.2000,96.2200,2.21 M,03/20/17,-0.21000000000000796,-0.21777455148813435
EOG,96.5400,96.9700,95.6500,96.4300,6.98 M,03/17/17,0.6000000000000085,0.6261087342168512
EOG,97.1600,97.2500,95.7400,95.8300,3.18 M,03/16/17,-1.230000000000004,-1.267257366577379
EOG,95.5400,97.3880,94.6800,97.0600,4.18 M,03/15/17,2.469999999999999,2.611269690242096
EOG,93.9300,94.9900,92.9100,94.5900,5.09 M,03/14/17,-0.35999999999999943,-0.379146919431279
EOG,94.4900,95.3500,93.5150,94.9500,4.70 M,03/13/17,0.1599999999999966,0.16879417660090365
EOG,96.5000,96.5000,94.0100,94.7900,3.80 M,03/10/17,-0.9099999999999966,-0.950888192267499
EOG,93.7700,96.0200,93.0600,95.7000,4.99 M,03/09/17,0.8700000000000045,0.9174311926605553
EOG,98.8100,99.3600,94.4900,94.8300,4.83 M,03/08/17,-4.700000000000003,-4.722194313272383
EOG,100.4000,100.5400,99.4000,99.5300,3.38 M,03/07/17,-0.539999999999992,-0.5396222644149017
EOG,98.6200,100.3800,97.8000,100.0700,3.11 M,03/06/17,1.5,1.5217611849447095
EOG,98.5000,99.3050,98.1189,98.5700,2.08 M,03/03/17,0.09999999999999432,0.10155377272265087
EOG,99.1800,99.7100,98.2350,98.4700,3.05 M,03/02/17,-1.5799999999999983,-1.579210394802597
EOG,98.2500,100.4200,98.0100,100.0500,3.78 M,03/01/17,3.0600000000000023,3.154964429322613
EOG,99.5000,99.5500,95.2900,96.9900,6.37 M,02/28/17,-0.9200000000000017,-0.9396384434684932
EOG,96.7800,98.2300,96.3000,97.9100,5.16 M,02/27/17,1.6099999999999994,1.6718587746625124
EOG,96.5200,97.5000,95.6500,96.3000,3.59 M,02/24/17,-1.269999999999996,-1.3016295992620643
EOG,99.1900,99.1900,96.5500,97.5700,3.21 M,02/23/17,0.03999999999999204,0.041013021634360755
EOG,98.7600,99.2000,97.4600,97.5300,2.60 M,02/22/17,-1.9399999999999977,-1.9503367849602873
EOG,100.4100,100.8500,99.4300,99.4700,2.74 M,02/21/17,0.4399999999999977,0.4443098051095605
EOG,99.9100,100.0200,98.4300,99.0300,3.02 M,02/17/17,-1.1400000000000006,-1.1380652890086858
EOG,101.0600,101.4800,99.8400,100.1700,3.15 M,02/16/17,-0.5799999999999983,-0.5756823821339934
EOG,100.9100,101.4700,100.3500,100.7500,2.09 M,02/15/17,-0.480000000000004,-0.47416773683691
EOG,100.3300,101.4800,99.0200,101.2300,3.86 M,02/14/17,0.8800000000000097,0.8769307424016041
EOG,100.9100,101.3800,100.1400,100.3500,1.95 M,02/13/17,-1.0900000000000034,-1.0745268138801296
EOG,101.2300,102.0299,100.5700,101.4400,3.09 M,02/10/17,1.6299999999999955,1.6331028955014482
EOG,99.1000,100.2900,98.4500,99.8100,2.93 M,02/09/17,1.6700000000000017,1.7016507030772383
EOG,96.6000,98.4900,95.2800,98.1400,3.45 M,02/08/17,0.9500000000000028,0.9774668175738274
EOG,99.2500,99.5000,95.2700,97.1900,5.16 M,02/07/17,-2.510000000000005,-2.5175526579739267
EOG,101.0000,101.0500,99.4300,99.7000,1.80 M,02/06/17,-1.2399999999999949,-1.2284525460669655
EOG,99.6800,102.1800,99.2100,100.9400,3.52 M,02/03/17,1.230000000000004,1.2335773743857226
EOG,101.1400,101.4800,98.9400,99.7100,5.06 M,02/02/17,-1.2900000000000063,-1.2772277227722835
EOG,102.1900,102.6300,100.0500,101.0000,3.03 M,02/01/17,-0.5799999999999983,-0.5709785390824949
EOG,101.3500,101.6200,100.1000,101.5800,2.45 M,01/31/17,0.37999999999999545,0.37549407114624056
EOG,102.1900,102.7600,99.5700,101.2000,2.98 M,01/30/17,-1.7000000000000028,-1.6520894071914507
EOG,104.1600,104.1600,102.7750,102.9000,2.34 M,01/27/17,-1.4899999999999949,-1.4273397835041621
EOG,104.1000,105.2600,103.9000,104.3900,2.77 M,01/26/17,0.4899999999999949,0.47160731472569284
EOG,103.6300,104.3900,103.2400,103.9000,2.80 M,01/25/17,0.21999999999999886,0.21219135802469025
EOG,104.4900,104.6200,102.9100,103.6800,2.68 M,01/24/17,0.22000000000001307,0.21264256717573274
EOG,104.7200,105.1000,103.3400,103.4600,3.05 M,01/23/17,-2.010000000000005,-1.9057551910495925
EOG,106.2300,106.7900,105.3000,105.4700,2.49 M,01/20/17,0.28000000000000114,0.26618499857401
EOG,105.5000,106.2100,104.4550,105.1900,2.43 M,01/19/17,-0.21000000000000796,-0.19924098671727508
EOG,105.3400,105.7100,104.7300,105.4000,2.53 M,01/18/17,-0.0799999999999983,-0.07584376185058617
EOG,105.9500,106.7600,105.4500,105.4800,3.88 M,01/17/17,0.09000000000000341,0.08539709649872228
EOG,104.8400,106.0800,104.2650,105.3900,2.58 M,01/13/17,0.01999999999999602,0.01898073455442348
EOG,105.5100,106.5100,104.8400,105.3700,4.67 M,01/12/17,0.45000000000000284,0.42889820815859975
EOG,103.5600,105.0400,102.7300,104.9200,3.54 M,01/11/17,1.519999999999996,1.470019342359764
EOG,103.2300,104.4000,102.8700,103.4000,2.91 M,01/10/17,0.38000000000000966,0.36886041545331943
EOG,104.3200,104.5800,102.8200,103.0200,3.38 M,01/09/17,-2.1899999999999977,-2.0815511833475884
EOG,104.6100,105.7100,103.7106,105.2100,2.42 M,01/06/17,1.029999999999987,0.9886734497984132
EOG,103.6300,104.8500,103.4200,104.1800,3.08 M,01/05/17,0.5600000000000023,0.5404362092260203
EOG,104.2500,104.4700,102.9700,103.6200,2.42 M,01/04/17,0.0799999999999983,0.07726482518833136
EOG,102.6300,104.6300,101.8300,103.5400,4.15 M,01/03/17,2.440000000000012,2.4134520276953633
EOG,101.1500,102.1800,100.7300,101.1000,2.18 M,12/30/16,-0.18000000000000682,-0.17772511848341904
EOG,101.6000,101.9500,100.5400,101.2800,1.52 M,12/29/16,-0.37000000000000455,-0.3639940973930197
EOG,102.4900,102.8300,101.3500,101.6500,1.90 M,12/28/16,-0.8900000000000006,-0.8679539691827585
EOG,102.8200,103.1200,102.3200,102.5400,1.41 M,12/27/16,0.5100000000000051,0.4998529844163531
EOG,102.7000,103.0394,101.6200,102.0300,1.71 M,12/23/16,-1.0999999999999943,-1.0666149520023216
EOG,102.6700,103.3300,101.8700,103.1300,2.72 M,12/22/16,0.5799999999999983,0.565577766942953
EOG,103.7500,103.8600,102.3300,102.5500,2.37 M,12/21/16,-0.6099999999999994,-0.5913144629701429
EOG,104.2000,104.3400,102.7100,103.1600,2.38 M,12/20/16,-0.3200000000000074,-0.3092385001932812
EOG,104.2700,104.4000,103.1300,103.4800,2.24 M,12/19/16,-0.519999999999996,-0.49999999999999617
EOG,104.0900,104.5900,102.7900,104.0000,8.91 M,12/16/16,0.0799999999999983,0.07698229407236172
EOG,103.0300,105.0500,102.5400,103.9200,4.65 M,12/15/16,-0.28999999999999204,-0.2782842337587487
EOG,106.6900,107.4700,104.0800,104.2100,4.01 M,12/14/16,-3.8000000000000114,-3.5181927599296463
EOG,107.0000,109.1300,105.8000,108.0100,3.91 M,12/13/16,2.180000000000007,2.059907398658232
EOG,109.1000,109.3700,105.1942,105.8300,5.76 M,12/12/16,-0.6200000000000045,-0.5824330671676886
EOG,105.5900,106.9900,105.3500,106.4500,4.05 M,12/09/16,1.519999999999996,1.4485847707995767
EOG,104.0300,105.2500,102.3639,104.9300,6.19 M,12/08/16,1.4000000000000057,1.3522650439486195
EOG,103.9200,104.9700,102.6900,103.5300,3.78 M,12/07/16,-0.4399999999999977,-0.423198999711453
EOG,103.5200,105.3000,102.5600,103.9700,3.54 M,12/06/16,-0.4899999999999949,-0.4690790733294993
EOG,104.8800,106.8100,104.3200,104.4600,5.88 M,12/05/16,0.7199999999999989,0.6940427993059561
EOG,104.8100,105.4700,103.3900,103.7400,4.08 M,12/02/16,-1.0100000000000051,-0.9642004773269739
EOG,105.7100,107.4700,103.8500,104.7500,6.51 M,12/01/16,2.230000000000004,2.1751853296917716
EOG,97.3100,103.0700,97.0900,102.5200,10.12 M,11/30/16,10.079999999999998,10.904370402423192
EOG,91.6000,93.3800,90.0000,92.4400,4.01 M,11/29/16,-1.0300000000000011,-1.1019578474376817
EOG,96.6400,96.8400,93.2700,93.4700,3.03 M,11/28/16,-2.510000000000005,-2.6151281516982756
EOG,96.3900,96.8050,95.1900,95.9800,1.52 M,11/25/16,-1.019999999999996,-1.0515463917525731
EOG,94.7900,97.7000,94.6400,97.0000,2.68 M,11/23/16,1.730000000000004,1.8158916762884476
EOG,95.7900,96.2000,93.4200,95.2700,3.87 M,11/22/16,-0.4000000000000057,-0.4181038988188624
EOG,95.0000,97.0000,94.8600,95.6700,4.64 M,11/21/16,2.519999999999996,2.7053140096618313
EOG,92.7500,94.2767,92.3800,93.1500,2.76 M,11/18/16,0.8100000000000023,0.8771929824561427
EOG,96.1000,96.5750,92.0400,92.3400,5.88 M,11/17/16,-2.8799999999999955,-3.0245746691871407
EOG,94.5100,96.0199,94.0500,95.2200,4.10 M,11/16/16,0.6500000000000057,0.6873215607486578
EOG,94.0300,94.9900,93.0500,94.5700,8.29 M,11/15/16,1.8899999999999864,2.0392749244712842
EOG,91.1900,92.8000,90.0900,92.6800,2.47 M,11/14/16,1.2700000000000102,1.3893447106443608
EOG,92.0700,92.5400,90.1200,91.4100,2.34 M,11/11/16,-1.2199999999999989,-1.3170679045665539
EOG,92.6400,93.7000,92.0600,92.6300,2.98 M,11/10/16,-0.8000000000000114,-0.8562560205501566
EOG,93.3500,94.6700,92.5150,93.4300,4.69 M,11/09/16,0.07000000000000739,0.07497857754927956
EOG,92.9000,94.1000,92.5701,93.3600,2.38 M,11/08/16,-0.07000000000000739,-0.07492240179814555
EOG,93.6000,93.6000,92.2100,93.4300,2.99 M,11/07/16,1.6300000000000097,1.7755991285403157
EOG,94.8700,96.0000,91.5100,91.8000,6.78 M,11/04/16,-0.28000000000000114,-0.30408340573414544
EOG,90.8800,92.8800,90.5900,92.0800,4.16 M,11/03/16,1.1400000000000006,1.25357378491313
EOG,89.9100,91.7900,88.9400,90.9400,3.30 M,11/02/16,-0.21999999999999886,-0.24133391838525545
EOG,91.3200,92.2230,89.9000,91.1600,2.50 M,11/01/16,0.7399999999999949,0.8184030081840244
EOG,90.6600,91.2300,90.1800,90.4200,2.41 M,10/31/16,-0.37999999999999545,-0.4185022026431668
EOG,91.6500,94.0900,90.6800,90.8000,3.27 M,10/28/16,-0.9399999999999977,-1.0246348375844754
EOG,92.5100,92.8900,91.3000,91.7400,3.58 M,10/27/16,-0.4000000000000057,-0.43412198827871246
EOG,91.8500,93.1000,90.3800,92.1400,3.29 M,10/26/16,-0.5300000000000011,-0.5719218733139108
EOG,93.4800,94.1900,92.5700,92.6700,1.43 M,10/25/16,-0.9500000000000028,-1.0147404400769096
EOG,93.9800,94.6700,92.2800,93.6200,2.57 M,10/24/16,-0.2599999999999909,-0.2769492969748519
EOG,94.1900,95.0200,93.6400,93.8800,2.73 M,10/21/16,-1.0300000000000011,-1.0852386471393964
EOG,93.9700,95.5000,93.7700,94.9100,2.47 M,10/20/16,-0.15000000000000568,-0.15779507679361002
EOG,94.2600,96.1800,94.0000,95.0600,3.16 M,10/19/16,1.9300000000000068,2.0723719531837292
EOG,94.9600,95.1600,92.9400,93.1300,2.74 M,10/18/16,-0.6500000000000057,-0.6931115376412942
EOG,94.4600,94.9500,93.0514,93.7800,2.10 M,10/17/16,-0.7000000000000028,-0.7408975444538557
EOG,96.2700,96.2700,93.9100,94.4800,2.53 M,10/14/16,-1.019999999999996,-1.0680628272251267
EOG,95.4300,95.9300,93.9900,95.5000,2.25 M,10/13/16,-0.7999999999999972,-0.8307372793354072
EOG,95.8800,96.7600,95.1500,96.3000,2.42 M,10/12/16,0.25,0.2602811035918792
EOG,96.7500,97.0699,95.7200,96.0500,2.10 M,10/11/16,-1.240000000000009,-1.2745400349470748
EOG,97.2800,98.1000,97.1300,97.2900,1.96 M,10/10/16,0.8500000000000085,0.8813770219825887
EOG,96.8800,97.3300,96.0500,96.4400,1.74 M,10/07/16,-0.7000000000000028,-0.7206094296891115
EOG,97.5500,98.0600,96.3900,97.1400,1.79 M,10/06/16,-0.23999999999999488,-0.2464571780653059
EOG,96.3700,98.3200,96.0900,97.3800,3.28 M,10/05/16,2.239999999999995,2.3544250578095385
EOG,96.3200,96.3690,94.5052,95.1400,1.72 M,10/04/16,-0.9699999999999989,-1.0092602226615326
EOG,96.2700,96.7100,95.0600,96.1100,2.32 M,10/03/16,-0.5999999999999943,-0.6204115396546317
EOG,95.5500,97.2000,94.6900,96.7100,4.01 M,09/30/16,1.6599999999999966,1.7464492372435525
EOG,94.2800,95.9400,93.1400,95.0500,4.49 M,09/29/16,1.0900000000000034,1.1600681140911062
EOG,89.4600,94.5800,88.5700,93.9600,4.53 M,09/28/16,5.3999999999999915,6.0975609756097455
EOG,88.1500,89.0000,87.1750,88.5600,2.94 M,09/27/16,-0.7000000000000028,-0.7842258570468327
EOG,90.2200,90.6300,89.0100,89.2600,2.13 M,09/26/16,-0.4899999999999949,-0.5459610027855096
EOG,92.2500,92.3627,89.4000,89.7500,3.68 M,09/23/16,-2.8599999999999994,-3.0882194147500264
EOG,94.6100,95.0000,92.4300,92.6100,3.05 M,09/22/16,-0.9099999999999966,-0.9730538922155653
EOG,91.5600,93.7900,91.1000,93.5200,3.19 M,09/21/16,3.1199999999999903,3.4513274336283075
EOG,90.1600,91.8500,90.0401,90.4000,3.05 M,09/20/16,0.3500000000000085,0.3886729594669723
EOG,91.6600,91.8700,90.0200,90.0500,3.74 M,09/19/16,-0.9200000000000017,-1.0113224139826336
EOG,89.5400,91.4600,89.2700,90.9700,4.56 M,09/16/16,0.01999999999999602,0.021990104452991776
EOG,88.8500,92.3900,88.4900,90.9500,3.95 M,09/15/16,2.5,2.8264556246466928
EOG,89.8800,90.8200,88.1700,88.4500,3.67 M,09/14/16,-1.9500000000000028,-2.157079646017702
EOG,91.6100,92.1300,89.5300,90.4000,3.99 M,09/13/16,-2.5799999999999983,-2.774790277479026
EOG,92.0500,93.5300,91.3500,92.9800,2.50 M,09/12/16,0.3299999999999983,0.3561791689152707
EOG,94.3600,94.8700,92.6200,92.6500,3.01 M,09/09/16,-2.780000000000001,-2.9131300429634295
EOG,95.1800,95.9300,94.1600,95.4300,3.70 M,09/08/16,1.1100000000000136,1.1768447837150273
EOG,94.7800,95.1600,94.0400,94.3200,4.27 M,09/07/16,-0.5100000000000051,-0.5378044922492936
EOG,90.2500,95.2000,90.0600,94.8300,7.42 M,09/06/16,5.920000000000002,6.658418625576428
EOG,89.2700,89.5000,88.6850,88.9100,1.94 M,09/02/16,0.35999999999999943,0.40654997176736246
EOG,88.3100,88.6400,87.4400,88.5500,2.42 M,09/01/16,0.060000000000002274,0.06780427166911773
EOG,89.7600,89.9000,88.0200,88.4900,2.71 M,08/31/16,-1.5799999999999983,-1.7541911846341716
EOG,91.2700,91.6900,89.6400,90.0700,1.62 M,08/30/16,-1.0700000000000074,-1.1740179942945002
EOG,89.9800,91.3300,89.6100,91.1400,2.23 M,08/29/16,0.9599999999999937,1.0645375914836923
EOG,90.7300,91.5090,89.9200,90.1800,1.64 M,08/26/16,-0.06999999999999318,-0.07756232686979854
EOG,90.7000,90.8500,90.0000,90.2500,1.93 M,08/25/16,-0.480000000000004,-0.5290422131599294
EOG,90.7700,91.4000,90.5600,90.7300,2.33 M,08/24/16,-0.47999999999998977,-0.5262580857362019
EOG,90.7300,91.8500,90.7100,91.2100,2.99 M,08/23/16,0.03999999999999204,0.043874081386412245
EOG,90.8300,91.8400,90.2700,91.1700,2.28 M,08/22/16,-0.5900000000000034,-0.6429816913687918
EOG,91.1700,91.9350,90.6600,91.7600,2.34 M,08/19/16,0.030000000000001137,0.032704676768779174
EOG,90.8200,92.1000,90.2900,91.7300,4.12 M,08/18/16,1.5100000000000051,1.6736865440035527
EOG,89.8100,90.6600,89.3000,90.2200,3.16 M,08/17/16,-0.04000000000000625,-0.04431641923333287
EOG,90.1900,90.8000,88.8400,90.2600,2.46 M,08/16/16,-0.28999999999999204,-0.32026504693538604
EOG,91.5100,91.9700,90.5400,90.5500,2.79 M,08/15/16,-0.6500000000000057,-0.7127192982456202
EOG,90.6500,91.4200,90.0000,91.2000,1.91 M,08/12/16,0.9200000000000017,1.0190518387239718
EOG,90.0700,91.1500,89.0800,90.2800,3.45 M,08/11/16,0.8599999999999994,0.9617535227018558
EOG,90.8700,90.8700,89.2000,89.4200,2.66 M,08/10/16,-0.9599999999999937,-1.062181898650137
EOG,91.2900,91.3900,89.9000,90.3800,3.06 M,08/09/16,-0.28000000000000114,-0.3088462386940229
EOG,90.9700,92.0000,90.4700,90.6600,4.51 M,08/08/16,0.5,0.554569653948536
EOG,87.2300,90.7700,86.7500,90.1600,8.93 M,08/05/16,5.920000000000002,7.027540360873697
EOG,82.0300,84.3000,81.6000,84.2400,4.24 M,08/04/16,1.8699999999999903,2.270244020881377
EOG,80.0000,82.4200,79.6700,82.3700,3.04 M,08/03/16,2.480000000000004,3.1042683690073902
EOG,79.3700,80.3600,78.5200,79.8900,3.04 M,08/02/16,1.1899999999999977,1.512071156289705
EOG,81.0400,81.1300,78.2600,78.7000,3.59 M,08/01/16,-3.0,-3.671970624235006
EOG,79.0000,81.8900,78.8600,81.7000,2.89 M,07/29/16,1.7999999999999972,2.2528160200250276
EOG,79.7400,80.7100,79.2500,79.9000,2.54 M,07/28/16,0.12000000000000455,0.15041363750313932
EOG,80.7600,81.9500,79.6450,79.7800,3.45 M,07/27/16,-0.6700000000000017,-0.8328154133001885
EOG,78.4700,80.4500,78.0400,80.4500,2.55 M,07/26/16,1.7000000000000028,2.158730158730162
EOG,80.3800,80.5600,78.1900,78.7500,4.28 M,07/25/16,-2.230000000000004,-2.753766362064712
EOG,82.0500,82.2000,80.1900,80.9800,2.62 M,07/22/16,-0.5099999999999909,-0.6258436617989827
EOG,82.1500,83.4600,81.2000,81.4900,1.86 M,07/21/16,-0.6200000000000045,-0.7550846425526788
EOG,81.5300,82.8600,80.9200,82.1100,2.16 M,07/20/16,0.06999999999999318,0.08532423208190294
EOG,82.8700,83.1500,81.8600,82.0400,2.17 M,07/19/16,-1.2099999999999937,-1.453453453453446
EOG,83.9200,84.3100,82.7400,83.2500,1.86 M,07/18/16,-0.8499999999999943,-1.010701545778828
EOG,84.5100,84.9000,83.6400,84.1000,2.47 M,07/15/16,-0.5300000000000011,-0.6262554649651437
EOG,84.8400,84.9300,83.8800,84.6300,2.02 M,07/14/16,0.789999999999992,0.9422709923664027
EOG,84.5900,85.0700,82.6200,83.8400,2.81 M,07/13/16,-1.2999999999999972,-1.5268968757340817
EOG,84.5500,85.9600,84.1400,85.1400,2.86 M,07/12/16,2.239999999999995,2.7020506634499335
EOG,82.9400,83.8900,82.6000,82.9000,1.69 M,07/11/16,0.35999999999999943,0.4361521686455045
EOG,82.8400,83.0700,81.5738,82.5400,1.98 M,07/08/16,0.9300000000000068,1.1395662296287303
EOG,83.8300,83.8600,81.1200,81.6100,2.15 M,07/07/16,-1.1500000000000057,-1.3895601739971069
EOG,82.0300,83.1100,81.8600,82.7600,2.21 M,07/06/16,0.0,0.0
EOG,83.1200,84.0300,81.6700,82.7600,2.70 M,07/05/16,-2.019999999999996,-2.3826374144845435
EOG,83.7800,85.7300,83.3700,84.7800,2.68 M,07/01/16,1.3599999999999994,1.6303044833373284
EOG,83.4400,83.9598,82.6400,83.4200,3.36 M,06/30/16,-0.01999999999999602,-0.023969319271327925
EOG,82.8000,84.0100,82.4100,83.4400,2.87 M,06/29/16,1.6899999999999977,2.067278287461771
EOG,80.6500,81.7700,79.8500,81.7500,3.11 M,06/28/16,3.1599999999999966,4.020867794884841
EOG,80.0000,80.8000,78.1100,78.5900,4.27 M,06/27/16,-2.469999999999999,-3.0471255859856883
EOG,81.5800,82.8800,80.8100,81.0600,4.94 M,06/24/16,-3.4399999999999977,-4.071005917159761
EOG,84.7600,84.9700,83.9700,84.5000,2.41 M,06/23/16,0.9000000000000057,1.0765550239234518
EOG,84.9000,85.0900,83.4300,83.6000,2.42 M,06/22/16,-1.3100000000000023,-1.5428100341538127
EOG,82.9900,85.2200,82.8300,84.9100,3.54 M,06/21/16,1.7199999999999989,2.0675561966582507
EOG,82.3300,83.3900,81.8100,83.1900,3.21 M,06/20/16,2.299999999999997,2.843367536160214
EOG,80.9500,81.5500,80.3400,80.8900,3.28 M,06/17/16,0.7099999999999937,0.885507607882257
EOG,81.2500,81.3450,79.3300,80.1800,3.14 M,06/16/16,-2.259999999999991,-2.7413876758854814
EOG,82.7300,83.5400,81.5000,82.4400,2.15 M,06/15/16,-0.5400000000000063,-0.6507592190889446
EOG,81.2200,83.0500,81.0700,82.9800,2.34 M,06/14/16,1.5900000000000034,1.9535569480280175
EOG,80.9900,83.0985,80.5100,81.3900,2.28 M,06/13/16,-0.1700000000000017,-0.20843550760176766
EOG,83.3200,84.3400,81.3300,81.5600,2.98 M,06/10/16,-3.019999999999996,-3.570584062426101
EOG,84.1700,85.4400,84.0000,84.5800,3.59 M,06/09/16,-0.7800000000000011,-0.9137769447047811
EOG,86.6000,86.8700,85.1400,85.3600,3.80 M,06/08/16,-0.060000000000002274,-0.0702411613205365
EOG,81.9900,85.6300,81.9100,85.4200,4.37 M,06/07/16,4.150000000000006,5.106435338993486
EOG,80.6100,81.4200,79.9700,81.2700,2.04 M,06/06/16,1.5600000000000023,1.9570944674444892
EOG,80.2400,80.8000,79.1100,79.7100,2.13 M,06/03/16,-0.7800000000000011,-0.9690644800596362
EOG,79.9600,80.5800,79.2000,80.4900,2.07 M,06/02/16,-0.2600000000000051,-0.32198142414861314
EOG,80.6500,81.3050,80.0000,80.7500,3.34 M,06/01/16,-0.6099999999999994,-0.7497541789577181
EOG,82.0300,82.4800,81.0800,81.3600,3.01 M,05/31/16,-0.20999999999999375,-0.25744759102610487
EOG,81.9400,82.2600,80.7700,81.5700,2.10 M,05/27/16,-0.730000000000004,-0.8869987849331762
EOG,83.5500,83.9400,82.2100,82.3000,2.37 M,05/26/16,-0.7800000000000011,-0.9388541165142046
EOG,82.5000,83.3800,82.2900,83.0800,2.90 M,05/25/16,0.5900000000000034,0.7152382106922093
EOG,81.7900,83.0800,80.6500,82.4900,3.31 M,05/24/16,1.2199999999999989,1.5011689430294068
EOG,79.8000,81.8700,79.7300,81.2700,3.22 M,05/23/16,0.3499999999999943,0.4325259515570864
EOG,80.5900,81.3100,79.5400,80.9200,3.32 M,05/20/16,0.8400000000000034,1.0489510489510532
EOG,79.1500,80.1900,77.6600,80.0800,3.80 M,05/19/16,-0.3299999999999983,-0.4103967168262633
EOG,81.3600,82.1500,79.8800,80.4100,2.49 M,05/18/16,-1.1599999999999966,-1.4220914551918558
EOG,80.8000,82.4800,80.3900,81.5700,3.95 M,05/17/16,0.8799999999999955,1.0905936299417467
EOG,79.6400,81.4100,79.6400,80.6900,2.99 M,05/16/16,2.039999999999992,2.5937698664971287
EOG,80.2100,80.9700,78.6000,78.6500,3.22 M,05/13/16,-1.8499999999999943,-2.298136645962726
EOG,81.3900,81.8500,79.5500,80.5000,2.28 M,05/12/16,0.18000000000000682,0.22410358565737903
EOG,79.3800,81.2088,78.2200,80.3200,3.19 M,05/11/16,0.5899999999999892,0.7399974915339134
EOG,78.7700,79.8500,78.7148,79.7300,4.09 M,05/10/16,1.0900000000000034,1.3860630722278782
EOG,78.2100,78.8300,77.0350,78.6400,3.00 M,05/09/16,-0.04000000000000625,-0.050838840874436006
EOG,78.8300,81.6500,78.0750,78.6800,5.07 M,05/06/16,-2.5799999999999983,-3.174993846911147
EOG,80.4400,82.7499,80.1500,81.2600,5.21 M,05/05/16,1.9200000000000017,2.419964708847998
EOG,80.6100,82.0000,78.8100,79.3400,3.76 M,05/04/16,-1.289999999999992,-1.5999007813468835
EOG,81.4400,82.2300,80.0500,80.6300,3.81 M,05/03/16,-2.1500000000000057,-2.5972457115245295
EOG,82.3300,83.0600,80.6800,82.7800,4.30 M,05/02/16,0.1599999999999966,0.19365770999757514
EOG,82.7100,83.2400,81.0300,82.6200,4.57 M,04/29/16,0.730000000000004,0.8914397362315349
EOG,83.8500,84.7500,81.6000,81.8900,3.27 M,04/28/16,-2.6200000000000045,-3.1002248254644473
EOG,83.6900,85.4300,83.0400,84.5100,3.80 M,04/27/16,1.730000000000004,2.089876781831365
EOG,80.5150,82.8601,79.9750,82.7800,3.65 M,04/26/16,3.019999999999996,3.78635907723169
EOG,80.3900,80.5200,79.0400,79.7600,2.83 M,04/25/16,-1.1599999999999966,-1.4335145823035054
EOG,79.6700,81.7800,79.4950,80.9200,3.16 M,04/22/16,1.7600000000000051,2.2233451237999056
EOG,79.3800,80.2900,78.7100,79.1600,3.34 M,04/21/16,-0.21000000000000796,-0.26458359581706936
EOG,78.1300,80.0600,76.6400,79.3700,4.07 M,04/20/16,0.2400000000000091,0.303298369771274
EOG,78.5200,80.1800,77.7000,79.1300,3.83 M,04/19/16,1.6899999999999977,2.182334710743799
EOG,74.0400,77.6800,73.5700,77.4400,3.59 M,04/18/16,1.730000000000004,2.2850350019812495
EOG,77.4200,77.4200,75.0700,75.7100,4.87 M,04/15/16,-2.1000000000000085,-2.698881891787699
EOG,78.0300,78.6300,77.0000,77.8100,2.67 M,04/14/16,0.030000000000001137,0.03857032656209969
EOG,77.6100,78.1800,76.3200,77.7800,4.63 M,04/13/16,0.269999999999996,0.34834214940007224
EOG,74.4600,77.8300,73.5400,77.5100,5.53 M,04/12/16,3.5,4.729090663423861
EOG,73.8800,74.7800,73.7000,74.0100,3.46 M,04/11/16,0.5400000000000063,0.7349938750510497
EOG,73.3700,73.5000,72.4400,73.4700,3.22 M,04/08/16,2.019999999999996,2.8271518544436613
EOG,70.7900,72.0800,70.3900,71.4500,3.02 M,04/07/16,0.23000000000000398,0.3229429935411457
EOG,70.6800,71.7100,69.7600,71.2200,4.16 M,04/06/16,0.6799999999999926,0.963992061241838
EOG,69.8900,71.3600,69.6600,70.5400,3.47 M,04/05/16,0.23000000000000398,0.3271227421419485
EOG,72.4800,72.6300,70.1100,70.3100,3.45 M,04/04/16,-1.730000000000004,-2.4014436424208827
EOG,70.8500,72.4700,70.4101,72.0400,5.14 M,04/01/16,-0.539999999999992,-0.744006613392108
EOG,73.4800,74.4200,72.3700,72.5800,5.66 M,03/31/16,-1.0799999999999983,-1.4661960358403452
EOG,76.4400,76.5000,73.5900,73.6600,4.14 M,03/30/16,-1.7900000000000063,-2.3724320742213467
EOG,73.1700,75.6400,73.1400,75.4500,3.24 M,03/29/16,0.9200000000000017,1.2344022541258577
EOG,74.3000,74.7599,73.5200,74.5300,2.63 M,03/28/16,0.23000000000000398,0.3095558546433432
EOG,72.4200,74.9100,72.3205,74.3000,3.62 M,03/24/16,-0.04000000000000625,-0.053806833467858826
EOG,75.4500,76.5400,73.8400,74.3400,3.84 M,03/23/16,-1.5600000000000023,-2.0553359683794494
EOG,75.3900,77.2500,75.3800,75.9000,2.84 M,03/22/16,-0.05999999999998806,-0.07898894154816755
EOG,75.0200,76.3200,74.5900,75.9600,2.90 M,03/21/16,0.3299999999999983,0.4363347877826237
EOG,77.5000,77.7000,74.6300,75.6300,7.46 M,03/18/16,-0.8700000000000045,-1.1372549019607903
EOG,75.6600,77.4500,75.1800,76.5000,4.68 M,03/17/16,1.4599999999999937,1.9456289978677954
EOG,74.3700,75.2700,72.6850,75.0400,4.88 M,03/16/16,1.4300000000000068,1.9426708327672964
EOG,73.8200,74.3700,71.9000,73.6100,3.91 M,03/15/16,-1.1700000000000017,-1.56458946242311
EOG,73.7100,75.4500,73.2900,74.7800,3.19 M,03/14/16,-0.4000000000000057,-0.5320563979781932
EOG,73.1400,75.8900,72.9900,75.1800,4.28 M,03/11/16,2.910000000000011,4.026567040265686
EOG,71.1600,72.8600,70.3050,72.2700,4.56 M,03/10/16,0.009999999999990905,0.013838915029049135
EOG,71.5900,72.5000,69.8100,72.2600,4.69 M,03/09/16,1.7000000000000028,2.4092970521541988
EOG,74.6500,74.8400,70.4800,70.5600,6.60 M,03/08/16,-4.909999999999997,-6.505896382668606
EOG,71.1200,75.5300,70.2200,75.4700,8.45 M,03/07/16,4.060000000000002,5.685478224338332
EOG,69.9100,71.5200,68.7400,71.4100,7.93 M,03/04/16,2.1599999999999966,3.1191335740072152
EOG,66.9500,69.6700,66.1800,69.2500,6.64 M,03/03/16,2.25,3.3582089552238807
EOG,64.9500,67.1200,64.1400,67.0000,5.24 M,03/02/16,1.980000000000004,3.045216856351898
EOG,65.1000,65.4658,62.5300,65.0200,7.54 M,03/01/16,0.28000000000000114,0.43249922767995236
EOG,67.4200,67.5600,64.7200,64.7400,7.95 M,02/29/16,-2.760000000000005,-4.088888888888897
EOG,68.0000,69.7000,65.7400,67.5000,10.60 M,02/26/16,-1.0,-1.4598540145985401
EOG,69.1900,70.3000,67.1700,68.5000,5.36 M,02/25/16,-1.019999999999996,-1.4672036823935501
EOG,67.2300,69.9400,66.7500,69.5200,4.15 M,02/24/16,1.5,2.2052337547780065
EOG,71.6900,71.7500,67.6500,68.0200,4.42 M,02/23/16,-4.189999999999998,-5.802520426533718
EOG,71.5400,72.7700,70.6200,72.2100,4.68 M,02/22/16,2.5,3.586286042174724
EOG,68.6100,69.7300,68.0600,69.7100,3.58 M,02/19/16,0.25,0.35991937805931473
EOG,70.9900,71.2300,69.3400,69.4600,3.67 M,02/18/16,-1.3599999999999994,-1.9203614798079633
EOG,69.0000,70.9400,67.6000,70.8200,6.29 M,02/17/16,2.9299999999999926,4.31580497864191
EOG,68.7700,69.0900,66.2500,67.8900,3.75 M,02/16/16,0.18999999999999773,0.2806499261447529
EOG,66.8200,68.7600,65.9800,67.7000,5.48 M,02/12/16,2.1400000000000006,3.2641854789505804
EOG,63.6200,65.9900,63.0600,65.5600,5.41 M,02/11/16,-0.23000000000000398,-0.34959720322238025
EOG,65.4500,66.7800,63.9100,65.7900,4.30 M,02/10/16,0.20000000000000284,0.30492453117853763
EOG,67.2100,67.9700,64.3400,65.5900,6.38 M,02/09/16,-2.8400000000000034,-4.150226508841156
EOG,65.6600,68.8000,64.7500,68.4300,6.27 M,02/08/16,1.3700000000000045,2.0429466149716737
EOG,67.6800,67.6800,65.6200,67.0600,5.51 M,02/05/16,-1.3799999999999955,-2.0163646990064223
EOG,70.6700,71.3900,68.1400,68.4400,5.17 M,02/04/16,-1.75,-2.4932326542242484
EOG,68.6100,70.2700,66.3210,70.1900,5.38 M,02/03/16,3.030000000000001,4.511614055985707
EOG,67.0100,69.3700,66.0000,67.1600,5.46 M,02/02/16,-1.9300000000000068,-2.7934578086553867
EOG,69.3000,70.0000,67.6900,69.0900,4.49 M,02/01/16,-1.9299999999999926,-2.717544353703172
EOG,69.1700,71.1800,69.0200,71.0200,6.88 M,01/29/16,2.3900000000000006,3.482442080722717
EOG,69.2300,69.7900,66.6452,68.6300,6.74 M,01/28/16,2.5600000000000023,3.8746783714242508
EOG,65.0900,67.9300,64.4900,66.0700,7.07 M,01/27/16,0.03999999999999204,0.060578524912906315
EOG,63.0000,66.1300,62.2900,66.0300,6.79 M,01/26/16,4.439999999999998,7.208962493911345
EOG,64.6200,66.1500,61.5100,61.5900,4.97 M,01/25/16,-4.429999999999993,-6.710087852166
EOG,66.4400,67.4900,64.6700,66.0200,6.83 M,01/22/16,2.269999999999996,3.5607843137254838
EOG,60.2400,64.2500,59.4100,63.7500,7.40 M,01/21/16,3.509999999999998,5.82669322709163
EOG,59.7300,60.8800,57.1500,60.2400,10.62 M,01/20/16,-0.7399999999999949,-1.2135126270908412
EOG,63.1500,63.6300,59.4800,60.9800,5.48 M,01/19/16,-1.990000000000002,-3.160235032555188
EOG,62.0100,64.0200,61.0100,62.9700,5.87 M,01/15/16,-2.2900000000000063,-3.5090407600367852
EOG,64.6700,66.6100,63.6100,65.2600,7.13 M,01/14/16,1.0900000000000034,1.6986130590618722
EOG,63.4200,64.6550,62.5900,64.1700,7.75 M,01/13/16,1.25,1.986649713922441
EOG,64.6500,65.1799,61.3498,62.9200,7.12 M,01/12/16,-0.75,-1.1779487984922254
EOG,65.8800,66.0600,62.9150,63.6700,5.36 M,01/11/16,-1.8499999999999943,-2.823565323565315
EOG,65.8600,66.4300,64.7700,65.5200,4.99 M,01/08/16,0.060000000000002274,0.09165902841430229
EOG,65.9200,69.0100,65.1900,65.4600,5.30 M,01/07/16,-1.8599999999999994,-2.7629233511586446
EOG,68.5000,68.5000,66.7000,67.3200,6.63 M,01/06/16,-2.8100000000000023,-4.006844431769574
EOG,70.0600,70.5400,68.5700,70.1300,3.67 M,01/05/16,0.44999999999998863,0.6458094144661145
EOG,70.8000,71.0000,68.8320,69.6800,5.14 M,01/04/16,-1.1099999999999994,-1.5680180816499496
EOG,70.1100,71.5900,70.0000,70.7900,3.12 M,12/31/15,0.18000000000000682,0.2549213992352455
EOG,69.8000,71.0900,69.7400,70.6100,3.35 M,12/30/15,-0.480000000000004,-0.6752004501336389
EOG,71.8800,72.3300,70.5500,71.0900,3.17 M,12/29/15,0.6000000000000085,0.8511845651865635
EOG,71.7600,71.9800,70.2050,70.4900,4.00 M,12/28/15,-2.930000000000007,-3.990738218469091
EOG,73.7500,73.9800,72.6500,73.4200,1.79 M,12/24/15,-0.269999999999996,-0.36639978287419733
EOG,71.4000,73.7600,70.7900,73.6900,5.35 M,12/23/15,3.8799999999999955,5.557942988110579
EOG,70.3300,71.5800,69.5800,69.8100,5.23 M,12/22/15,-0.4399999999999977,-0.6263345195729505
EOG,71.6000,71.8500,69.3025,70.2500,5.08 M,12/21/15,-1.1800000000000068,-1.651966960660796
EOG,73.1900,73.8700,71.4100,71.4300,6.63 M,12/18/15,-1.8699999999999903,-2.5511596180081724
EOG,75.4700,75.9800,71.9300,73.3000,6.11 M,12/17/15,-2.5,-3.2981530343007917
EOG,77.2900,77.6200,75.7200,75.8000,4.96 M,12/16/15,-1.5,-1.9404915912031049
EOG,77.9700,78.6600,76.9800,77.3000,5.70 M,12/15/15,0.4399999999999977,0.5724694249284383
EOG,74.3600,77.0300,73.7200,76.8600,5.85 M,12/14/15,1.9699999999999989,2.63052476966217
EOG,77.3200,79.4300,74.7600,74.8900,4.96 M,12/11/15,-3.2900000000000063,-4.208237400869796
EOG,77.8400,80.1500,77.4000,78.1800,5.03 M,12/10/15,-0.19999999999998863,-0.2551671344730654
EOG,77.4700,80.4000,76.8750,78.3800,5.38 M,12/09/15,1.269999999999996,1.6469977953572768
EOG,74.7200,77.8800,73.9300,77.1100,5.34 M,12/08/15,0.9200000000000017,1.2075075469221705
EOG,77.8800,78.4000,74.5500,76.1900,6.35 M,12/07/15,-4.299999999999997,-5.342278543918496
EOG,79.2900,80.8400,78.5000,80.4900,4.75 M,12/04/15,-0.5,-0.6173601679219657
EOG,81.6400,82.4800,80.2500,80.9900,4.67 M,12/03/15,0.12999999999999545,0.16077170418005868
EOG,83.3300,84.0550,80.4100,80.8600,4.54 M,12/02/15,-3.1899999999999977,-3.795359904818558
EOG,83.4500,84.1300,83.0200,84.0500,2.58 M,12/01/15,0.6199999999999903,0.7431379599664273
EOG,82.4100,84.6396,82.2000,83.4300,3.83 M,11/30/15,1.4100000000000108,1.719092904169728
EOG,82.8800,83.2700,81.8991,82.0200,1.45 M,11/27/15,-1.5100000000000051,-1.807733748353891
EOG,84.2400,84.6300,83.2000,83.5300,3.04 M,11/25/15,-1.6099999999999994,-1.8910030537937508
EOG,83.3000,85.6500,83.1600,85.1400,4.42 M,11/24/15,2.5700000000000074,3.1125105970691624
EOG,82.3600,83.3790,82.0600,82.5700,2.72 M,11/23/15,-0.060000000000002274,-0.07261285247489081
EOG,83.0000,83.2700,81.9800,82.6300,2.98 M,11/20/15,-0.020000000000010232,-0.024198427102250734
EOG,84.2600,84.6400,81.7440,82.6500,2.80 M,11/19/15,-2.5,-2.935995302407516
EOG,83.8400,85.2600,82.9500,85.1500,3.20 M,11/18/15,2.1700000000000017,2.6150879730055454
EOG,84.2900,84.3100,81.9265,82.9800,3.29 M,11/17/15,-1.8100000000000023,-2.134685694067699
EOG,82.4400,84.8600,82.0000,84.7900,3.05 M,11/16/15,2.5400000000000063,3.0881458966565427
EOG,81.6500,82.9500,80.5040,82.2500,3.11 M,11/13/15,0.5600000000000023,0.6855184233076292
EOG,82.3400,82.7500,80.9300,81.6900,3.44 M,11/12/15,-1.6299999999999955,-1.9563130100816077
EOG,86.3500,87.9000,83.1900,83.3200,3.55 M,11/11/15,-3.260000000000005,-3.7653037653037713
EOG,85.2200,86.8800,84.7150,86.5800,3.91 M,11/10/15,1.2099999999999937,1.4173597282417638
EOG,85.9400,87.1800,84.4905,85.3700,3.85 M,11/09/15,0.10000000000000853,0.1172745396974417
EOG,85.4100,88.4900,84.2300,85.2700,5.27 M,11/06/15,-1.2000000000000028,-1.3877645426159395
EOG,86.2800,88.2200,85.4500,86.4700,4.03 M,11/05/15,0.0,0.0
EOG,88.4800,88.9600,85.7501,86.4700,3.91 M,11/04/15,-1.980000000000004,-2.238552854720185
EOG,86.9000,89.5200,86.2800,88.4500,5.51 M,11/03/15,2.3800000000000097,2.765191123504136
EOG,85.1400,86.5000,84.7100,86.0700,3.60 M,11/02/15,0.21999999999999886,0.25626092020966673
EOG,85.7800,86.6800,84.3700,85.8500,3.16 M,10/30/15,0.3299999999999983,0.38587464920486236
EOG,84.3200,85.9000,84.1300,85.5200,2.98 M,10/29/15,0.7299999999999898,0.8609505837952467
EOG,82.9800,86.1700,82.3500,84.7900,3.83 M,10/28/15,2.0900000000000034,2.5272067714631237
EOG,81.8400,82.9500,80.0500,82.7000,5.15 M,10/27/15,-0.6899999999999977,-0.8274373426070245
EOG,85.1000,85.2900,83.2500,83.3900,3.50 M,10/26/15,-2.0400000000000063,-2.387919934449264
EOG,85.0900,86.0900,84.3200,85.4300,2.67 M,10/23/15,-0.36999999999999034,-0.43123543123541996
EOG,84.6300,86.1700,84.3700,85.8000,2.90 M,10/22/15,2.019999999999996,2.4110766292671233
EOG,84.4400,84.7000,83.4100,83.7800,3.01 M,10/21/15,-1.0900000000000034,-1.284317190998001
EOG,84.5700,85.6500,83.9500,84.8700,3.55 M,10/20/15,0.060000000000002274,0.07074637424832245
EOG,86.2700,86.4700,84.1100,84.8100,4.26 M,10/19/15,-2.6899999999999977,-3.0742857142857116
EOG,87.7500,88.0000,86.5600,87.5000,4.13 M,10/16/15,0.35999999999999943,0.4131282992885006
EOG,85.3000,87.1600,84.9300,87.1400,3.61 M,10/15/15,1.3599999999999994,1.5854511541151777
EOG,84.9900,86.1400,84.7600,85.7800,3.33 M,10/14/15,0.5,0.5863039399624765
EOG,85.1300,86.2900,84.7500,85.2800,5.61 M,10/13/15,-0.75,-0.871788910845054
EOG,87.1200,88.0000,84.9300,86.0300,4.80 M,10/12/15,-1.269999999999996,-1.4547537227949554
EOG,87.3500,88.3000,86.1000,87.3000,5.80 M,10/09/15,0.2599999999999909,0.29871323529410715
EOG,83.3100,87.2700,83.0700,87.0400,6.80 M,10/08/15,3.2700000000000102,3.9035454219887913
EOG,84.3700,85.4000,82.1800,83.7700,6.96 M,10/07/15,0.9299999999999926,1.122646064703033
EOG,80.7200,83.7300,80.5500,82.8400,6.78 M,10/06/15,2.1899999999999977,2.7154370737755706
EOG,78.1600,81.7000,78.0000,80.6500,7.43 M,10/05/15,3.5900000000000034,4.658707500648849
EOG,72.6700,77.4500,71.5900,77.0600,6.03 M,10/02/15,3.469999999999999,4.715314580785431
EOG,73.8000,75.6800,73.0000,73.5900,5.68 M,10/01/15,0.7900000000000063,1.0851648351648437
EOG,70.8500,72.9400,70.6700,72.8000,4.81 M,09/30/15,2.6700000000000017,3.8072151718237586
EOG,69.8600,70.6700,69.1400,70.1300,3.77 M,09/29/15,0.6999999999999886,1.0082097076191683
EOG,71.7400,72.1887,69.1000,69.4300,4.58 M,09/28/15,-3.3599999999999994,-4.616018683885148
EOG,74.0600,74.2100,72.1900,72.7900,3.89 M,09/25/15,-0.46999999999999886,-0.6415506415506399
EOG,72.2900,73.7200,71.4800,73.2600,4.44 M,09/24/15,0.21999999999999886,0.30120481927710685
EOG,75.2400,75.9250,72.8700,73.0400,3.89 M,09/23/15,-2.1799999999999926,-2.898165381547451
EOG,75.4300,76.6600,74.6900,75.2200,3.43 M,09/22/15,-1.2999999999999972,-1.698902247778355
EOG,77.0500,77.3300,75.8700,76.5200,3.26 M,09/21/15,0.2599999999999909,0.3409388932598884
EOG,78.8600,79.1900,75.9300,76.2600,6.05 M,09/18/15,-3.3999999999999915,-4.268139593271393
EOG,80.0200,81.1800,79.1200,79.6600,5.50 M,09/17/15,-0.28000000000000114,-0.3502626970227685
EOG,77.6800,80.1700,77.4600,79.9400,4.00 M,09/16/15,2.6899999999999977,3.482200647249188
EOG,77.0400,77.8000,76.5645,77.2500,3.65 M,09/15/15,0.8199999999999932,1.072877142483309
EOG,77.1500,77.1500,76.0400,76.4300,3.70 M,09/14/15,-0.7199999999999989,-0.9332469215813335
EOG,76.7500,77.4100,75.8400,77.1500,4.57 M,09/11/15,-0.9099999999999966,-1.1657699205739132
EOG,77.5700,78.2400,76.1300,78.0600,4.81 M,09/10/15,1.1299999999999955,1.4688678018978232
EOG,78.7400,79.3500,76.6700,76.9300,6.45 M,09/09/15,-0.7299999999999898,-0.9399948493432781
EOG,77.5800,78.1800,75.4500,77.6600,5.14 M,09/08/15,0.769999999999996,1.0014306151645156
EOG,76.2200,77.4400,75.9500,76.8900,4.70 M,09/04/15,-0.5600000000000023,-0.7230471271788279
EOG,78.2500,80.1600,76.7900,77.4500,6.23 M,09/03/15,-0.2599999999999909,-0.33457727448203695
EOG,77.0600,77.7100,74.8700,77.7100,5.36 M,09/02/15,1.6899999999999977,2.2230991844251484
EOG,76.0200,77.3200,75.1800,76.0200,6.38 M,09/01/15,-2.2900000000000063,-2.9242753160515975
EOG,76.2000,79.1600,74.5700,78.3100,6.86 M,08/31/15,1.0,1.2934937265554263
EOG,75.5000,79.3400,75.4100,77.3100,6.96 M,08/28/15,1.519999999999996,2.005541628183132
EOG,72.9900,76.1000,72.8600,75.7900,7.16 M,08/27/15,4.800000000000011,6.761515706437543
EOG,70.2100,71.0400,68.4000,70.9900,6.76 M,08/26/15,2.6299999999999955,3.847279110590982
EOG,72.1000,72.1100,68.2900,68.3600,6.72 M,08/25/15,-0.9000000000000057,-1.2994513427663956
EOG,70.0000,73.2800,68.1500,69.2600,9.52 M,08/24/15,-5.599999999999994,-7.4806305102858595
EOG,76.3900,77.4300,74.1200,74.8600,7.77 M,08/21/15,-1.8700000000000045,-2.4371171640818514
EOG,77.0200,78.4400,76.6100,76.7300,6.79 M,08/20/15,-0.3399999999999892,-0.44115738938625826
EOG,79.8700,79.8750,76.0700,77.0700,6.12 M,08/19/15,-3.3400000000000034,-4.15371222484766
EOG,79.7100,80.5400,79.2800,80.4100,3.54 M,08/18/15,0.3999999999999915,0.49993750781151286
EOG,79.5000,80.1600,78.8900,80.0100,3.75 M,08/17/15,0.0799999999999983,0.10008757662954872
EOG,79.5000,80.8800,78.8000,79.9300,3.91 M,08/14/15,0.25,0.31375502008032125
EOG,79.3000,80.5000,78.3400,79.6800,5.89 M,08/13/15,-0.25,-0.3127736769673464
EOG,77.3200,80.2600,76.5000,79.9300,8.33 M,08/12/15,2.6300000000000097,3.402328589909456
EOG,75.1300,77.4300,74.1800,77.3000,5.98 M,08/11/15,1.0300000000000011,1.3504654516848056
EOG,73.6700,76.4800,73.6200,76.2700,6.94 M,08/10/15,2.509999999999991,3.4029284164858877
EOG,75.2500,78.7000,73.0300,73.7600,8.48 M,08/07/15,-3.9200000000000017,-5.046343975283215
EOG,75.6500,78.3400,75.3000,77.6800,6.71 M,08/06/15,1.5900000000000034,2.089630700486271
EOG,78.0600,78.9500,75.9600,76.0900,4.90 M,08/05/15,-0.6499999999999915,-0.8470158978368406
EOG,77.0800,77.7700,76.3500,76.7400,3.98 M,08/04/15,0.29999999999999716,0.3924646781789602
EOG,76.2000,77.6300,75.4500,76.4400,5.14 M,08/03/15,-0.75,-0.971628449280995
EOG,78.0000,78.3100,77.0000,77.1900,4.19 M,07/31/15,-1.3500000000000085,-1.7188693659282002
EOG,77.6500,78.7200,76.8000,78.5400,4.54 M,07/30/15,0.8000000000000114,1.0290712631849903
EOG,76.5000,79.0100,76.5000,77.7400,6.36 M,07/29/15,0.8900000000000006,1.158100195185427
EOG,73.4000,77.5589,73.4000,76.8500,7.89 M,07/28/15,3.6599999999999966,5.000683153436257
EOG,74.1000,74.7300,72.8650,73.1900,5.62 M,07/27/15,-1.9699999999999989,-2.621075039914847
EOG,76.1000,76.5800,74.6200,75.1600,5.85 M,07/24/15,-1.1599999999999966,-1.5199161425576477
EOG,76.2000,76.8200,75.4700,76.3200,6.34 M,07/23/15,0.22999999999998977,0.3022736233407672
EOG,77.1800,77.4900,75.7600,76.0900,7.21 M,07/22/15,-1.2399999999999949,-1.6035173929910707
EOG,78.0900,78.3800,76.9400,77.3300,6.82 M,07/21/15,-0.6000000000000085,-0.769921724624674
EOG,80.2400,80.2500,77.9200,77.9300,7.05 M,07/20/15,-2.569999999999993,-3.1925465838509233
EOG,81.9700,82.1500,80.2600,80.5000,6.07 M,07/17/15,-1.9000000000000057,-2.3058252427184533
EOG,83.7400,83.8000,82.3400,82.4000,4.02 M,07/16/15,-0.8499999999999943,-1.0210210210210142
EOG,84.6200,85.2300,83.0500,83.2500,3.92 M,07/15/15,-1.980000000000004,-2.3231256599788854
EOG,84.2000,85.6400,84.1000,85.2300,3.28 M,07/14/15,1.0200000000000102,1.211257570359827
EOG,84.5300,84.7900,83.4700,84.2100,3.83 M,07/13/15,-0.3300000000000125,-0.3903477643719097
EOG,85.9800,86.7550,84.4500,84.5400,2.90 M,07/10/15,-0.7599999999999909,-0.8909730363423106
EOG,85.9900,87.3500,85.1800,85.3000,3.78 M,07/09/15,0.8100000000000023,0.9586933364895281
EOG,86.1000,86.9200,84.0000,84.4900,4.68 M,07/08/15,-2.230000000000004,-2.5714944649446543
EOG,85.7800,87.1000,83.8300,86.7200,5.12 M,07/07/15,1.6299999999999955,1.9156187566106422
EOG,84.4900,86.1800,84.0500,85.0900,3.51 M,07/06/15,-0.5799999999999983,-0.6770164585035582
EOG,85.9500,86.7000,85.5850,85.6700,2.70 M,07/02/15,-0.09999999999999432,-0.1165908825929746
EOG,87.8500,87.8500,84.8400,85.7700,4.64 M,07/01/15,-1.7800000000000011,-2.033123929183325
EOG,86.9900,87.9000,86.3400,87.5500,3.94 M,06/30/15,1.2999999999999972,1.507246376811591
EOG,86.9900,87.9400,86.1500,86.2500,4.02 M,06/29/15,-1.8100000000000023,-2.0554167612991168
EOG,87.6000,88.7000,87.0800,88.0600,11.41 M,06/26/15,0.4099999999999966,0.46776953793496473
EOG,88.1700,88.2700,87.3000,87.6500,3.80 M,06/25/15,-0.6899999999999977,-0.7810731265564836
EOG,88.5400,89.0700,88.1000,88.3400,3.79 M,06/24/15,-0.45000000000000284,-0.5068138303863079
EOG,88.2800,88.8200,87.6600,88.7900,3.61 M,06/23/15,0.710000000000008,0.8060853769300727
EOG,88.6000,88.6700,87.4500,88.0800,2.85 M,06/22/15,-0.18999999999999773,-0.2152486688569137
EOG,88.2900,89.1200,88.2400,88.2700,4.30 M,06/19/15,-0.5400000000000063,-0.608039635176226
EOG,89.7600,90.1300,88.5400,88.8100,3.60 M,06/18/15,-0.20999999999999375,-0.23590204448437851
EOG,90.6800,91.1500,88.4200,89.0200,5.00 M,06/17/15,-1.0600000000000023,-1.176731793960926
EOG,89.0700,90.3625,89.0260,90.0800,2.29 M,06/16/15,0.8599999999999994,0.963909437345886
EOG,88.5100,89.8600,88.5000,89.2200,2.80 M,06/15/15,-0.3100000000000023,-0.34625265274210015
EOG,90.1600,90.4300,89.1200,89.5300,2.46 M,06/12/15,-1.1200000000000045,-1.2355212355212404
EOG,91.0000,91.0500,90.2300,90.6500,2.30 M,06/11/15,0.2400000000000091,0.2654573609114137
EOG,90.3900,90.7100,89.6600,90.4100,2.91 M,06/10/15,1.3199999999999932,1.4816477719160321
EOG,90.0200,91.4800,89.0900,89.0900,2.66 M,06/09/15,-0.01999999999999602,-0.022444170126805097
EOG,89.3700,89.9600,88.6300,89.1100,2.76 M,06/08/15,-0.5700000000000074,-0.6355932203389912
EOG,87.0000,90.6400,86.8180,89.6800,4.43 M,06/05/15,2.3000000000000114,2.632181277180146
EOG,88.2300,89.1300,87.2800,87.3800,3.77 M,06/04/15,-1.6300000000000097,-1.8312549151780806
EOG,89.5500,90.4700,88.9700,89.0100,2.16 M,06/03/15,-0.7599999999999909,-0.8466079982176573
EOG,89.0200,90.3500,88.2100,89.7700,3.58 M,06/02/15,1.009999999999991,1.137899954934645
EOG,89.0200,89.1200,88.1800,88.7600,2.89 M,06/01/15,0.07000000000000739,0.07892659826362317
EOG,89.4200,89.5200,88.2600,88.6900,3.95 M,05/29/15,-0.46000000000000796,-0.5159842961301266
EOG,88.5500,89.3600,88.0000,89.1500,3.79 M,05/28/15,0.15000000000000568,0.168539325842703
EOG,89.1300,89.9400,88.5100,89.0000,3.02 M,05/27/15,-0.15000000000000568,-0.16825574873808824
EOG,89.2500,89.8100,88.5500,89.1500,3.92 M,05/26/15,-1.1099999999999994,-1.2297806337247943
EOG,90.4000,91.3897,90.0700,90.2600,3.06 M,05/22/15,-1.2299999999999898,-1.344409225051907
EOG,91.1700,91.8302,90.6800,91.4900,3.96 M,05/21/15,1.0300000000000011,1.1386248065443303
EOG,90.6000,90.7200,89.7600,90.4600,3.73 M,05/20/15,0.19999999999998863,0.22158209616661712
EOG,91.4800,91.6100,90.2350,90.2600,3.59 M,05/19/15,-1.539999999999992,-1.677559912854022
EOG,90.5600,92.0358,89.9000,91.8000,3.02 M,05/18/15,1.3299999999999983,1.4701005858295548
EOG,90.3200,91.2400,89.2500,90.4700,3.27 M,05/15/15,-0.2600000000000051,-0.28656453212829835
EOG,91.9900,92.0750,90.6800,90.7300,3.58 M,05/14/15,-0.8699999999999903,-0.9497816593886358
EOG,94.0400,94.0700,90.9800,91.6000,3.55 M,05/13/15,-1.8100000000000023,-1.9376940370410045
EOG,91.7600,93.5900,91.7100,93.4100,3.47 M,05/12/15,1.7999999999999972,1.9648509987992546
EOG,94.0500,94.2400,91.4650,91.6100,3.95 M,05/11/15,-1.8900000000000006,-2.0213903743315513
EOG,94.4800,94.5000,92.5550,93.5000,4.92 M,05/08/15,0.0,0.0
EOG,96.1000,96.1000,92.4200,93.5000,5.20 M,05/07/15,-1.5799999999999983,-1.6617585191417736
EOG,96.2100,96.8600,94.4900,95.0800,5.16 M,05/06/15,0.539999999999992,0.5711867992384091
EOG,98.7000,100.2000,94.5300,94.5400,11.76 M,05/05/15,-4.849999999999994,-4.879766576114291
EOG,99.1100,101.3600,98.5500,99.3900,7.31 M,05/04/15,0.4899999999999949,0.4954499494438775
EOG,99.2100,101.0000,97.6100,98.9000,3.58 M,05/01/15,-0.04999999999999716,-0.05053057099544937
EOG,100.0000,100.4400,98.4800,98.9500,3.46 M,04/30/15,-0.789999999999992,-0.7920593543212273
EOG,98.2200,99.9800,97.7900,99.7400,3.90 M,04/29/15,1.2800000000000011,1.300020312817389
EOG,97.6400,98.8100,97.6400,98.4600,3.74 M,04/28/15,1.0999999999999943,1.1298274445357377
EOG,97.5500,97.9600,96.5600,97.3600,2.98 M,04/27/15,0.6400000000000006,0.6617038875103397
EOG,97.9000,97.9700,95.9100,96.7200,3.14 M,04/24/15,-1.5499999999999972,-1.5772870662460539
EOG,97.9800,99.2500,97.8400,98.2700,2.71 M,04/23/15,0.5699999999999932,0.5834186284544454
EOG,96.9400,98.6000,96.3000,97.7000,2.90 M,04/22/15,1.1099999999999994,1.149187286468578
EOG,97.8300,98.3200,96.3600,96.5900,3.24 M,04/21/15,-1.1499999999999915,-1.1765909555964718
EOG,97.1800,99.0100,97.1800,97.7400,3.13 M,04/20/15,0.5099999999999909,0.5245294662141221
EOG,97.0400,97.4700,96.3900,97.2300,3.20 M,04/17/15,-0.769999999999996,-0.7857142857142817
EOG,97.8300,98.9500,97.1700,98.0000,4.05 M,04/16/15,0.04000000000000625,0.04083299305839756
EOG,96.7600,98.3350,96.4300,97.9600,5.86 M,04/15/15,1.5,1.5550487248600458
EOG,95.6600,96.9500,95.3400,96.4600,3.20 M,04/14/15,1.769999999999996,1.8692575773576894
EOG,96.7500,96.9000,94.2000,94.6900,3.11 M,04/13/15,-1.9000000000000057,-1.9670773371984736
EOG,95.8700,96.6000,95.2500,96.5900,2.57 M,04/10/15,0.8800000000000097,0.9194441542158706
EOG,94.1100,96.0700,94.1100,95.7100,3.41 M,04/09/15,1.6699999999999875,1.7758400680561328
EOG,95.0100,95.5800,93.8000,94.0400,3.27 M,04/08/15,-0.22999999999998977,-0.24398005728226346
EOG,95.2000,95.9900,94.1200,94.2700,5.23 M,04/07/15,-0.6000000000000085,-0.6324443975967202
EOG,93.3600,95.4000,93.3000,94.8700,4.77 M,04/06/15,2.160000000000011,2.329845755581934
EOG,90.3000,92.9700,89.2300,92.7100,4.60 M,04/02/15,1.4899999999999949,1.6334137250602883
EOG,92.0400,93.3500,91.0600,91.2200,3.81 M,04/01/15,-0.46999999999999886,-0.5125967935434604
EOG,91.1300,92.4700,90.8300,91.6900,3.58 M,03/31/15,-0.45000000000000284,-0.4883872368135477
EOG,91.6400,92.5000,90.7800,92.1400,3.48 M,03/30/15,1.5799999999999983,1.7446996466431075
EOG,90.6200,91.1200,90.1400,90.5600,2.54 M,03/27/15,-0.7999999999999972,-0.8756567425569146
EOG,91.4900,91.9300,90.2500,91.3600,4.86 M,03/26/15,1.4000000000000057,1.5562472209871119
EOG,89.6800,90.6450,88.7900,89.9600,3.66 M,03/25/15,1.1199999999999903,1.260693381359737
EOG,89.2000,89.9440,88.6400,88.8400,2.68 M,03/24/15,-0.1599999999999966,-0.17977528089887257
EOG,91.2500,91.4102,89.0000,89.0000,3.20 M,03/23/15,-1.6800000000000068,-1.8526687251874798
EOG,89.7500,91.9350,89.4300,90.6800,5.98 M,03/20/15,1.1500000000000057,1.2844856472690782
EOG,89.4000,89.9000,88.3600,89.5300,3.56 M,03/19/15,-1.1299999999999955,-1.2464151775865824
EOG,86.0800,91.3700,86.0000,90.6600,5.39 M,03/18/15,3.8599999999999994,4.447004608294931
EOG,86.8600,87.9700,86.4000,86.8000,3.80 M,03/17/15,-1.1000000000000085,-1.251422070534708
EOG,85.1100,88.0300,85.0600,87.9000,4.95 M,03/16/15,2.510000000000005,2.939454268649731
EOG,85.2000,85.6584,84.1000,85.3900,4.42 M,03/13/15,-0.3199999999999932,-0.37335200093337206
EOG,87.0500,87.1900,85.6200,85.7100,3.05 M,03/12/15,-0.8400000000000034,-0.9705372616984442
EOG,86.4200,87.3700,85.8800,86.5500,3.97 M,03/11/15,0.35999999999999943,0.4176818656456659
EOG,86.8800,88.5700,86.1500,86.1900,4.86 M,03/10/15,-1.5300000000000011,-1.7441860465116292
EOG,88.0800,89.2499,87.6400,87.7200,3.44 M,03/09/15,-0.8499999999999943,-0.9596928982725464
EOG,88.9200,90.0000,88.2300,88.5700,4.06 M,03/06/15,-1.0200000000000102,-1.1385199240986832
EOG,89.8500,90.5200,89.3700,89.5900,2.69 M,03/05/15,-0.8999999999999915,-0.9945850370206559
EOG,90.2000,90.9500,88.5500,90.4900,3.92 M,03/04/15,0.11999999999999034,0.1327874294566674
EOG,88.9800,91.1099,88.6000,90.3700,4.38 M,03/03/15,1.3100000000000023,1.470918481922302
EOG,89.0800,89.2000,87.0800,89.0600,5.35 M,03/02/15,-0.6599999999999966,-0.7356219349086007
EOG,90.6300,90.7100,89.2900,89.7200,3.84 M,02/27/15,-0.4099999999999966,-0.454898479973368
EOG,91.8100,92.2500,89.6100,90.1300,5.43 M,02/26/15,-2.9000000000000057,-3.1172739976351775
EOG,91.5400,93.2500,91.2900,93.0300,5.79 M,02/25/15,1.4200000000000017,1.5500491212749719
EOG,92.8500,93.0000,91.2600,91.6100,4.21 M,02/24/15,-0.3200000000000074,-0.3480909387577585
EOG,90.0600,92.1000,89.2500,91.9300,5.50 M,02/23/15,0.8500000000000085,0.9332454984628992
EOG,93.0900,93.4600,90.0700,91.0800,7.94 M,02/20/15,-2.719999999999999,-2.8997867803837942
EOG,86.6800,94.7400,86.5800,93.8000,18.68 M,02/19/15,-1.5100000000000051,-1.5843038505928078
EOG,94.8100,96.4900,94.5000,95.3100,4.53 M,02/18/15,-1.1799999999999926,-1.2229246554046975
EOG,96.0800,96.6700,95.6500,96.4900,4.23 M,02/17/15,-0.4300000000000068,-0.4436648782501102
EOG,95.9400,96.9700,95.2500,96.9200,4.16 M,02/13/15,2.1200000000000045,2.2362869198312283
EOG,94.9600,95.2400,93.4700,94.8000,3.94 M,02/12/15,1.5999999999999943,1.7167381974248865
EOG,93.8400,94.0900,92.1500,93.2000,6.33 M,02/11/15,-2.0600000000000023,-2.162502624396391
EOG,96.6500,96.6900,93.8400,95.2600,4.31 M,02/10/15,-0.6899999999999977,-0.7191245440333484
EOG,96.6000,97.2300,95.7800,95.9500,4.25 M,02/09/15,0.1599999999999966,0.16703204927445098
EOG,96.9900,97.2100,95.5700,95.7900,5.30 M,02/06/15,-0.3999999999999915,-0.415843642790302
EOG,95.7100,97.2850,95.1600,96.1900,5.60 M,02/05/15,1.0,1.0505305179115454
EOG,94.4000,97.5300,93.5400,95.1900,9.87 M,02/04/15,-1.1200000000000045,-1.1629114318347051
EOG,94.7200,97.8800,94.6500,96.3100,8.91 M,02/03/15,3.7900000000000063,4.096411586683967
EOG,90.9900,92.5700,89.5300,92.5200,5.62 M,02/02/15,3.489999999999995,3.9200269572054305
EOG,88.1600,90.0700,87.4000,89.0300,7.47 M,01/30/15,0.12000000000000455,0.13496794511304078
EOG,89.1200,89.4100,86.7600,88.9100,5.19 M,01/29/15,0.8100000000000023,0.9194097616345089
EOG,92.3300,92.6860,87.7620,88.1000,5.77 M,01/28/15,-4.900000000000006,-5.268817204301081
EOG,91.9400,94.4100,91.1200,93.0000,5.28 M,01/27/15,0.6700000000000017,0.7256579659915539
EOG,91.2300,92.3900,90.1500,92.3300,3.43 M,01/26/15,1.539999999999992,1.6962220508866526
EOG,90.0700,92.5200,89.7000,90.7900,4.43 M,01/23/15,0.4300000000000068,0.4758742806551647
EOG,91.3800,91.3800,88.5800,90.3600,4.47 M,01/22/15,-0.18000000000000682,-0.19880715705766158
EOG,90.5900,91.4000,89.6800,90.5400,4.91 M,01/21/15,1.210000000000008,1.3545281540356073
EOG,89.0900,89.7799,87.5200,89.3300,5.97 M,01/20/15,-0.980000000000004,-1.0851511460524903
EOG,86.8600,90.5350,86.5400,90.3100,5.48 M,01/16/15,3.780000000000001,4.368427135097655
EOG,89.0400,89.5000,86.4500,86.5300,4.94 M,01/15/15,-1.2099999999999937,-1.3790745384089285
EOG,84.0700,88.0900,83.6700,87.7400,6.70 M,01/14/15,2.6799999999999926,3.15071714084175
EOG,84.9700,86.6600,84.0500,85.0600,5.45 M,01/13/15,0.5499999999999972,0.6508105549639062
EOG,85.1100,85.3500,83.2000,84.5100,4.81 M,01/12/15,-2.9499999999999886,-3.372970500800353
EOG,87.0200,88.0300,86.0100,87.4600,4.04 M,01/09/15,0.5799999999999983,0.6675874769797402
EOG,84.7200,87.6500,84.0700,86.8800,5.84 M,01/08/15,3.1999999999999886,3.824091778202663
EOG,85.1800,85.7300,82.7200,83.6800,5.95 M,01/07/15,-0.5299999999999869,-0.6293789336183196
EOG,85.8400,86.6000,82.7600,84.2100,8.15 M,01/06/15,-2.470000000000013,-2.8495616059067985
EOG,89.9600,90.7800,86.0200,86.6800,6.17 M,01/05/15,-5.559999999999988,-6.027753686036415
EOG,91.0100,92.9900,90.3600,92.2400,3.46 M,01/02/15,0.1700000000000017,0.18464212012599296
EOG,91.9700,93.5470,90.7500,92.0700,3.33 M,12/31/14,-0.6300000000000097,-0.6796116504854472
EOG,93.5000,94.3300,91.8900,92.7000,3.38 M,12/30/14,-1.6299999999999955,-1.7279762535778602
EOG,94.5500,95.2100,93.4500,94.3300,3.40 M,12/29/14,0.5100000000000051,0.5435941163930986
EOG,94.9000,95.2000,93.3300,93.8200,2.21 M,12/26/14,-0.23000000000000398,-0.24455077086656457
EOG,95.6100,95.6400,92.5100,94.0500,3.02 M,12/24/14,-2.3599999999999994,-2.4478788507416236
EOG,95.7400,97.2735,94.5400,96.4100,4.25 M,12/23/14,1.3499999999999943,1.4201556911424302
EOG,94.2100,95.6200,93.6800,95.0600,6.75 M,12/22/14,0.04000000000000625,0.0420964007577418
EOG,93.6300,95.0900,92.4500,95.0200,7.85 M,12/19/14,2.569999999999993,2.779881016765812
EOG,93.8300,94.3900,88.9000,92.4500,8.89 M,12/18/14,1.3100000000000023,1.4373491332016703
EOG,87.6100,92.2100,86.1100,91.1400,10.27 M,12/17/14,5.670000000000002,6.633906633906637
EOG,83.8600,89.3900,83.7800,85.4700,8.31 M,12/16/14,0.12999999999999545,0.15233184907428574
EOG,87.0900,88.1636,84.9450,85.3400,6.87 M,12/15/14,-1.0300000000000011,-1.1925437073057787
EOG,85.3100,88.4200,85.1000,86.3700,6.61 M,12/12/14,-0.4899999999999949,-0.5641261800598606
EOG,87.1900,89.7600,86.1300,86.8600,5.81 M,12/11/14,0.06999999999999318,0.08065445327801955
EOG,86.3800,87.2600,85.5400,86.7900,8.82 M,12/10/14,-2.3599999999999994,-2.6472237801458207
EOG,87.0000,91.1190,86.7700,89.1500,8.20 M,12/09/14,0.960000000000008,1.0885587935140129
EOG,89.0800,89.5000,87.5100,88.1900,8.67 M,12/08/14,-2.5600000000000023,-2.8209366391184596
EOG,91.9100,92.0500,89.7800,90.7500,7.57 M,12/05/14,-2.25,-2.4193548387096775
EOG,90.7900,93.0000,89.7500,93.0000,5.11 M,12/04/14,1.2000000000000028,1.3071895424836633
EOG,91.7100,93.6000,90.8000,91.8000,6.24 M,12/03/14,1.5,1.6611295681063123
EOG,87.3800,91.3300,86.8700,90.3000,10.16 M,12/02/14,3.0600000000000023,3.5075653370013784
EOG,85.5200,87.5800,83.6600,87.2400,10.06 M,12/01/14,0.519999999999996,0.5996309963099585
EOG,87.1600,88.4300,85.1900,86.7200,9.47 M,11/28/14,-7.349999999999994,-7.813330498564893
EOG,96.6200,96.6300,93.8600,94.0700,5.35 M,11/26/14,-2.6700000000000017,-2.759975191234238
EOG,100.2800,100.3200,96.7200,96.7400,5.59 M,11/25/14,-2.8200000000000074,-2.8324628364805218
EOG,101.1800,101.7400,99.2500,99.5600,4.11 M,11/24/14,-2.1799999999999926,-2.14271672891684
EOG,102.4900,103.0400,101.2900,101.7400,6.38 M,11/21/14,2.299999999999997,2.3129525341914694
EOG,98.4500,100.2900,98.3400,99.4400,4.62 M,11/20/14,1.1099999999999994,1.128851825485609
EOG,98.7500,98.8000,96.7800,98.3300,3.83 M,11/19/14,0.6599999999999966,0.675744855124395
EOG,96.3200,98.2600,96.0900,97.6700,3.92 M,11/18/14,1.3200000000000074,1.370005189413604
EOG,97.0100,97.3800,95.7300,96.3500,4.35 M,11/17/14,-1.8100000000000023,-1.8439282803586006
EOG,96.3200,98.3600,96.2000,98.1600,3.99 M,11/14/14,2.3100000000000023,2.4100156494522715
EOG,96.5000,97.4350,94.4700,95.8500,5.86 M,11/13/14,-1.710000000000008,-1.7527675276752848
EOG,98.6800,99.3500,97.3500,97.5600,3.43 M,11/12/14,-1.1899999999999977,-1.2050632911392383
EOG,98.5000,99.0700,97.1100,98.7500,4.28 M,11/11/14,0.25,0.25380710659898476
EOG,101.0100,102.2500,97.9900,98.5000,5.95 M,11/10/14,-1.0499999999999972,-1.054746358613759
EOG,99.7200,101.5800,99.2700,99.5500,7.01 M,11/07/14,0.5799999999999983,0.586036172577547
EOG,95.1900,99.1800,95.1100,98.9700,8.20 M,11/06/14,2.8700000000000045,2.9864724245577574
EOG,95.5000,97.4700,93.5600,96.1000,11.40 M,11/05/14,5.819999999999993,6.446610544971193
EOG,89.6700,90.9935,89.0000,90.2800,8.21 M,11/04/14,-3.039999999999992,-3.2576082297470985
EOG,95.0500,96.8100,92.8900,93.3200,7.01 M,11/03/14,-1.730000000000004,-1.8200946870068428
EOG,91.9500,95.1000,90.7400,95.0500,5.50 M,10/31/14,2.8299999999999983,3.06874864454565
EOG,92.5700,93.2900,91.0300,92.2200,3.75 M,10/30/14,-0.9099999999999966,-0.9771287447653781
EOG,94.2400,95.3200,91.7600,93.1300,5.93 M,10/29/14,1.6299999999999955,1.7814207650273175
EOG,88.8100,91.9100,87.5500,91.5000,6.12 M,10/28/14,3.069999999999993,3.471672509329405
EOG,90.2800,90.2800,86.9500,88.4300,7.44 M,10/27/14,-3.6699999999999875,-3.9847991313789226
EOG,92.9500,93.0200,90.2000,92.1000,5.42 M,10/24/14,-1.3000000000000114,-1.391862955032132
EOG,94.2400,94.8400,92.4000,93.4000,9.22 M,10/23/14,1.3300000000000125,1.444553057456297
EOG,96.7600,97.0000,91.9800,92.0700,7.67 M,10/22/14,-3.960000000000008,-4.123711340206194
EOG,94.3500,96.1500,94.2700,96.0300,6.30 M,10/21/14,3.269999999999996,3.525226390685636
EOG,91.6300,93.1300,90.7700,92.7600,4.42 M,10/20/14,1.5400000000000063,1.6882262661697065
EOG,94.2000,95.5500,90.2600,91.2200,8.67 M,10/17/14,-0.04999999999999716,-0.05478251342171268
EOG,85.1900,92.5200,85.1900,91.2700,10.11 M,10/16/14,3.0999999999999943,3.515935125326068
EOG,82.0300,88.5300,81.0700,88.1700,11.11 M,10/15/14,4.329999999999998,5.1645992366412194
EOG,85.4000,86.8800,83.5000,83.8400,12.23 M,10/14/14,0.0799999999999983,0.09551098376313072
EOG,89.2500,90.3000,83.5800,83.7600,9.45 M,10/13/14,-6.069999999999993,-6.757208059668255
EOG,91.0700,91.9500,88.6100,89.8300,9.92 M,10/10/14,-2.1299999999999955,-2.3162244454110437
EOG,93.6400,93.7300,90.8800,91.9600,9.68 M,10/09/14,-2.6000000000000085,-2.7495769881556775
EOG,93.3100,94.6900,90.8000,94.5600,7.72 M,10/08/14,0.9500000000000028,1.0148488409358005
EOG,95.0200,96.0200,93.5700,93.6100,5.52 M,10/07/14,-1.480000000000004,-1.556420233463039
EOG,96.8400,97.0000,94.3600,95.0900,5.12 M,10/06/14,-1.4799999999999898,-1.5325670498084187
EOG,97.7100,97.7200,95.5700,96.5700,4.43 M,10/03/14,-0.4900000000000091,-0.5048423655470936
EOG,95.7600,97.6400,94.2700,97.0600,5.38 M,10/02/14,0.21000000000000796,0.21683014971606399
EOG,99.2100,99.7300,96.1501,96.8500,5.86 M,10/01/14,-2.1700000000000017,-2.191476469400123
EOG,101.8500,101.8500,97.4500,99.0200,6.42 M,09/30/14,-2.8500000000000085,-2.797683321880837
EOG,100.8000,102.0600,100.1005,101.8700,4.30 M,09/29/14,-0.009999999999990905,-0.00981546917941785
EOG,100.3700,102.4100,100.2100,101.8800,3.33 M,09/26/14,1.519999999999996,1.5145476285372619
EOG,102.6400,102.7000,100.1400,100.3600,3.59 M,09/25/14,-1.7800000000000011,-1.7427060896808313
EOG,100.9400,102.8700,99.5500,102.1400,4.59 M,09/24/14,1.2999999999999972,1.28917096390321
EOG,101.5500,101.6300,100.4500,100.8400,5.58 M,09/23/14,-0.8999999999999915,-0.8846078238647449
EOG,103.8200,103.8600,100.5700,101.7400,4.44 M,09/22/14,-2.6300000000000097,-2.5198811919133943
EOG,105.2400,105.9000,103.9600,104.3700,6.35 M,09/19/14,-0.6099999999999994,-0.5810630596304053
EOG,105.8200,105.9900,104.2100,104.9800,3.00 M,09/18/14,-0.20999999999999375,-0.19963874893050076
EOG,105.6500,106.0900,104.5200,105.1900,3.69 M,09/17/14,-0.030000000000001137,-0.028511689792816135
EOG,102.3300,105.9000,101.7500,105.2200,4.12 M,09/16/14,3.3100000000000023,3.247963889706606
EOG,100.8000,102.4100,100.1200,101.9100,3.06 M,09/15/14,0.5900000000000034,0.5823134622976741
EOG,102.5000,102.5700,101.0300,101.3200,3.70 M,09/12/14,-1.740000000000009,-1.6883368911313885
EOG,100.9300,103.1300,100.5000,103.0600,4.60 M,09/11/14,1.0499999999999972,1.029310851877264
EOG,100.9300,102.1400,99.3300,102.0100,3.72 M,09/10/14,0.7000000000000028,0.6909485736847328
EOG,101.6300,102.4900,100.8200,101.3100,3.64 M,09/09/14,-0.09999999999999432,-0.09860960457548006
EOG,104.0700,104.0700,100.7500,101.4100,5.55 M,09/08/14,-3.7700000000000102,-3.5843316219813746
EOG,104.3500,105.2900,103.0500,105.1800,3.24 M,09/05/14,0.5700000000000074,0.5448809865213722
EOG,107.7600,107.9900,103.9700,104.6100,3.94 M,09/04/14,-3.1299999999999955,-2.9051420085390713
EOG,108.8500,109.0800,107.4600,107.7400,1.48 M,09/03/14,0.030000000000001137,0.02785256707826677
EOG,109.5700,109.8500,107.0800,107.7100,2.76 M,09/02/14,-2.1700000000000017,-1.9748816891154002
EOG,108.8000,109.9800,108.3700,109.8800,1.80 M,08/29/14,1.4899999999999949,1.3746655595534596
EOG,108.3200,109.0800,108.1000,108.3900,1.76 M,08/28/14,-0.21999999999999886,-0.20255961697817776
EOG,109.4300,109.4500,108.0700,108.6100,2.00 M,08/27/14,-0.7900000000000063,-0.722120658135289
EOG,108.8600,110.4700,108.5000,109.4000,3.29 M,08/26/14,1.460000000000008,1.3526032981285974
EOG,106.9300,108.2500,106.6000,107.9400,1.94 M,08/25/14,1.6700000000000017,1.5714688999717716
EOG,106.5900,106.8400,105.6100,106.2700,2.08 M,08/22/14,-0.9200000000000017,-0.8582890194980891
EOG,107.5000,107.5199,106.0201,107.1900,2.14 M,08/21/14,-0.09000000000000341,-0.08389261744966761
EOG,107.0900,107.4500,106.1000,107.2800,2.19 M,08/20/14,0.25,0.23357937027001774
EOG,106.1000,107.3500,105.6600,107.0300,3.15 M,08/19/14,1.5999999999999943,1.51759461253912
EOG,106.6500,106.9100,104.6600,105.4300,3.28 M,08/18/14,-0.6599999999999966,-0.6221133000282747
EOG,103.9700,106.4200,103.6700,106.0900,4.56 M,08/15/14,2.1599999999999966,2.0783219474646364
EOG,107.2200,107.2300,103.5700,103.9300,3.49 M,08/14/14,-2.4199999999999875,-2.275505406676058
EOG,107.6600,107.8800,106.2200,106.3500,2.34 M,08/13/14,-0.3400000000000034,-0.31868028868685294
EOG,107.8900,108.4900,106.3400,106.6900,3.27 M,08/12/14,-1.6099999999999994,-1.4866112650046164
EOG,108.7200,109.0000,107.9200,108.3000,2.76 M,08/11/14,0.519999999999996,0.48246427908702544
EOG,106.0700,107.9000,106.0700,107.7800,2.35 M,08/08/14,1.7199999999999989,1.6217235527060143
EOG,107.6300,107.6300,105.4000,106.0600,2.98 M,08/07/14,-0.5799999999999983,-0.5438859714928717
EOG,107.0300,108.5086,105.6301,106.6400,5.01 M,08/06/14,-1.9899999999999949,-1.8319064715087867
EOG,111.8100,111.8100,107.5100,108.6300,4.85 M,08/05/14,-3.180000000000007,-2.8441105446740065
EOG,108.7400,112.1200,108.0800,111.8100,3.01 M,08/04/14,3.769999999999996,3.489448352462047
EOG,108.6500,109.8100,107.1600,108.0400,3.97 M,08/01/14,-1.3999999999999915,-1.2792397660818635
EOG,112.8400,113.0900,109.3700,109.4400,4.16 M,07/31/14,-4.189999999999998,-3.687406494763705
EOG,114.8300,115.4400,113.3600,113.6300,1.78 M,07/30/14,-0.6099999999999994,-0.5339635854341732
EOG,113.2700,115.3300,113.1900,114.2400,2.50 M,07/29/14,0.8499999999999943,0.7496251874062918
EOG,114.8200,115.0200,113.0000,113.3900,2.99 M,07/28/14,-1.4299999999999926,-1.2454276258491488
EOG,115.5800,115.8600,114.4003,114.8200,1.98 M,07/25/14,-1.3800000000000097,-1.1876075731497502
EOG,116.4800,116.9300,115.7000,116.2000,2.86 M,07/24/14,0.25,0.21561017680034497
EOG,116.7000,116.7000,115.3000,115.9500,3.62 M,07/23/14,-0.5999999999999943,-0.5148005148005099
EOG,116.7500,117.6200,115.8000,116.5500,2.60 M,07/22/14,0.3999999999999915,0.3443822643133805
EOG,115.8600,116.4250,115.1200,116.1500,1.59 M,07/21/14,0.10999999999999943,0.09479489831092677
EOG,115.3600,116.3870,114.3420,116.0400,2.61 M,07/18/14,0.4900000000000091,0.42405884898313206
EOG,117.4800,118.8100,115.3500,115.5500,2.29 M,07/17/14,-1.5499999999999972,-1.323654995730143
EOG,114.6200,117.2800,114.1700,117.1000,3.18 M,07/16/14,3.6599999999999966,3.2263751763046513
EOG,114.9100,115.6200,112.6389,113.4400,3.37 M,07/15/14,-2.25,-1.9448526233900942
EOG,114.6500,116.0500,114.3100,115.6900,2.96 M,07/14/14,2.039999999999992,1.794984601847771
EOG,115.7400,115.7400,113.3900,113.6500,2.48 M,07/11/14,-1.309999999999988,-1.1395267919276166
EOG,114.8800,115.8800,113.7600,114.9600,2.21 M,07/10/14,-1.6000000000000085,-1.37268359643103
EOG,116.1000,116.6300,115.1900,116.5600,1.94 M,07/09/14,0.5799999999999983,0.5000862217623714
EOG,115.3700,116.5500,115.1300,115.9800,2.51 M,07/08/14,0.25,0.21602004666033006
EOG,116.4000,116.5000,115.4200,115.7300,1.57 M,07/07/14,-1.019999999999996,-0.8736616702355426
EOG,116.2700,117.0200,115.1100,116.7500,1.68 M,07/03/14,0.519999999999996,0.44738879807278326
EOG,116.8600,117.5900,115.5400,116.2300,2.65 M,07/02/14,-0.3199999999999932,-0.2745602745602687
EOG,117.4400,117.9400,116.0200,116.5500,2.79 M,07/01/14,-0.3100000000000023,-0.26527468766045037
EOG,116.0800,117.1900,115.8500,116.8600,2.34 M,06/30/14,1.019999999999996,0.8805248618784496
EOG,115.2300,115.9300,114.7100,115.8400,2.80 M,06/27/14,0.4200000000000017,0.36388840755501795
EOG,115.6800,115.8200,114.0700,115.4200,2.36 M,06/26/14,-0.5999999999999943,-0.5171522151353166
EOG,113.3200,116.2500,113.3200,116.0200,3.46 M,06/25/14,3.0,2.6543974517784465
EOG,117.1800,117.4500,112.2400,113.0200,4.58 M,06/24/14,-4.390000000000001,-3.7390341538199476
EOG,118.5200,118.8900,116.9500,117.4100,3.33 M,06/23/14,-0.5700000000000074,-0.48313273436176246
EOG,117.0500,118.3900,116.1500,117.9800,5.56 M,06/20/14,2.180000000000007,1.8825561312608003
EOG,113.1400,115.8500,112.5200,115.8000,3.87 M,06/19/14,2.259999999999991,1.990487933767827
EOG,112.5800,113.8400,111.7400,113.5400,2.91 M,06/18/14,1.1500000000000057,1.0232227066465038
EOG,113.9500,113.9500,111.2600,112.3900,5.25 M,06/17/14,-1.6400000000000006,-1.4382180128036486
EOG,115.2100,115.2100,113.0200,114.0300,4.08 M,06/16/14,0.010000000000005116,0.008770391159450198
EOG,111.7700,114.0600,110.5300,114.0200,3.13 M,06/13/14,2.3900000000000006,2.141001522888113
EOG,111.4600,113.0200,111.2200,111.6300,3.80 M,06/12/14,0.9299999999999926,0.8401084010840042
EOG,108.2500,110.9100,108.1400,110.7000,2.68 M,06/11/14,2.010000000000005,1.8492961634005016
EOG,109.3900,109.7499,108.4100,108.6900,2.17 M,06/10/14,-0.8200000000000074,-0.7487900648342685
EOG,110.0900,110.7500,109.0000,109.5100,2.37 M,06/09/14,0.19000000000001194,0.1738016831321002
EOG,108.1400,109.5600,108.0400,109.3200,2.15 M,06/06/14,1.4199999999999875,1.3160333642261237
EOG,106.3500,107.9100,105.8200,107.9000,2.21 M,06/05/14,1.5300000000000011,1.4383754818087817
EOG,106.4800,106.7300,105.5600,106.3700,1.70 M,06/04/14,-0.28999999999999204,-0.27189199324957064
EOG,105.4500,106.6600,105.2700,106.6600,1.98 M,06/03/14,1.2800000000000011,1.2146517365724057
EOG,105.9500,106.0000,104.9500,105.3800,1.71 M,06/02/14,-0.4200000000000017,-0.3969754253308145
EOG,106.2700,106.3600,105.2500,105.8000,2.29 M,05/30/14,-0.8700000000000045,-0.8155995125152381
EOG,105.4200,106.7100,105.0000,106.6700,2.57 M,05/29/14,1.480000000000004,1.4069778496054797
EOG,104.8600,105.6300,104.4000,105.1900,2.73 M,05/28/14,0.45999999999999375,0.4392246729685799
EOG,104.4400,104.9700,103.7500,104.7300,2.07 M,05/27/14,0.7600000000000051,0.7309800904107003
EOG,103.8900,105.1500,103.4400,103.9700,2.54 M,05/23/14,0.28999999999999204,0.2797067901234491
EOG,104.2900,105.1700,103.5348,103.6800,2.46 M,05/22/14,-0.47999999999998977,-0.4608294930875478
EOG,102.7000,104.3600,102.1300,104.1600,1.78 M,05/21/14,2.269999999999996,2.227892825596227
EOG,102.2200,102.9500,101.4700,101.8900,1.94 M,05/20/14,-0.4099999999999966,-0.4007820136852362
EOG,102.5000,103.3600,101.9600,102.3000,1.83 M,05/19/14,-0.20000000000000284,-0.19512195121951498
EOG,102.5700,102.8800,101.3400,102.5000,2.85 M,05/16/14,-0.23999999999999488,-0.23359937706832284
EOG,103.9700,103.9800,101.5510,102.7400,2.61 M,05/15/14,-1.1600000000000108,-1.1164581328200296
EOG,105.3900,105.4900,103.8600,103.9000,2.42 M,05/14/14,-1.269999999999996,-1.2075686982979899
EOG,104.5800,105.5000,104.0700,105.1700,3.43 M,05/13/14,1.5300000000000011,1.4762639907371682
EOG,102.5700,103.7300,101.9800,103.6400,3.35 M,05/12/14,1.3599999999999994,1.3296832225263975
EOG,102.0000,102.3000,100.6400,102.2800,3.71 M,05/09/14,0.5499999999999972,0.5406468101838171
EOG,104.0300,104.5600,101.6200,101.7300,3.27 M,05/08/14,-3.0600000000000023,-2.9201259662181527
EOG,104.6100,105.4500,102.6400,104.7900,5.71 M,05/07/14,1.1600000000000108,1.1193669786741396
EOG,102.8000,106.5000,101.8400,103.6300,8.52 M,05/06/14,4.3799999999999955,4.413098236775814
EOG,96.0400,99.7110,96.0100,99.2500,4.77 M,05/05/14,2.1899999999999977,2.2563362868328847
EOG,97.3000,98.2500,96.8200,97.0600,3.71 M,05/02/14,-0.060000000000002274,-0.06177924217463166
EOG,98.3300,98.7700,96.8100,97.1200,4.24 M,05/01/14,-0.8799999999999955,-0.8979591836734647
EOG,99.0700,99.2000,97.0100,98.0000,6.30 M,04/30/14,-1.6200000000000045,-1.626179482031725
EOG,98.8800,101.2300,98.8300,99.6200,4.09 M,04/29/14,1.5600000000000023,1.5908627370997372
EOG,99.9400,100.0000,96.5300,98.0600,5.11 M,04/28/14,-0.980000000000004,-0.9894991922455613
EOG,103.2500,103.3000,98.5200,99.0400,7.17 M,04/25/14,-4.439999999999998,-4.2906841901816755
EOG,105.5000,105.5000,103.4200,103.4800,3.72 M,04/24/14,-1.5999999999999943,-1.5226494099733483
EOG,102.5300,105.1800,102.5300,105.0800,3.45 M,04/23/14,2.739999999999995,2.677350009771345
EOG,103.2700,103.2700,102.1100,102.3400,3.33 M,04/22/14,-1.1899999999999977,-1.1494252873563195
EOG,102.9800,103.5800,101.8401,103.5300,2.40 M,04/21/14,1.0799999999999983,1.0541727672035122
EOG,100.8400,102.8400,100.8400,102.4500,3.25 M,04/17/14,1.4399999999999977,1.4256014256014233
EOG,101.4800,102.2015,100.4300,101.0100,3.65 M,04/16/14,-0.09999999999999432,-0.09890218573829919
EOG,99.6300,101.6800,99.5200,101.1100,4.70 M,04/15/14,1.1500000000000057,1.1504601840736353
EOG,99.5200,100.1000,98.7200,99.9600,3.43 M,04/14/14,1.3299999999999983,1.3484740951029082
EOG,97.6700,99.4400,97.5700,98.6300,4.58 M,04/11/14,0.519999999999996,0.5300173274895484
EOG,98.6300,99.9900,97.5600,98.1100,4.71 M,04/10/14,-0.8400000000000034,-0.8489135927236012
EOG,98.9400,99.1700,97.9900,98.9500,3.83 M,04/09/14,0.2400000000000091,0.24313646033837413
EOG,97.7800,99.5800,97.5400,98.7100,3.29 M,04/08/14,0.7799999999999869,0.7964872868375236
EOG,99.7200,99.9800,97.4500,97.9300,3.15 M,04/07/14,-1.8399999999999892,-1.8442417560388786
EOG,102.6700,103.2950,98.9500,99.7700,4.03 M,04/04/14,-0.8800000000000097,-0.8743169398907199
EOG,99.3300,101.5000,99.2600,100.6500,5.22 M,04/03/14,1.5400000000000063,1.5538290788013382
EOG,98.2700,99.4500,98.0200,99.1100,2.86 M,04/02/14,0.12999999999999545,0.13133966457869817
EOG,99.3800,100.3600,98.2600,98.9800,3.42 M,04/01/14,0.8950000000000102,0.9124738747005253
EOG,99.2350,99.7500,97.5250,98.0850,4.14 M,03/31/14,-0.49500000000000455,-0.5021302495435226
EOG,97.2350,99.4100,97.0550,98.5800,4.05 M,03/28/14,1.8499999999999943,1.9125400599607094
EOG,96.1450,97.7000,96.0100,96.7300,3.54 M,03/27/14,0.6700000000000017,0.6974807412034163
EOG,96.2750,97.6580,95.9500,96.0600,4.12 M,03/26/14,0.2750000000000057,0.287101320666081
EOG,95.5900,96.4850,95.4500,95.7850,3.82 M,03/25/14,0.9849999999999994,1.0390295358649784
EOG,96.1250,96.4850,94.2300,94.8000,3.46 M,03/24/14,-1.019999999999996,-1.0644959298684993
EOG,95.9550,96.5800,94.6900,95.8200,5.33 M,03/21/14,0.6549999999999869,0.6882782535595933
EOG,93.8100,95.2800,93.0350,95.1650,4.02 M,03/20/14,1.4000000000000057,1.4930944382232236
EOG,94.6750,94.7200,93.0150,93.7650,3.17 M,03/19/14,-0.8149999999999977,-0.8617043772467728
EOG,93.7000,95.2600,93.5900,94.5800,3.17 M,03/18/14,0.9650000000000034,1.0308177108369423
EOG,93.3000,94.0000,93.0000,93.6150,2.72 M,03/17/14,0.6299999999999955,0.6775286336505839
EOG,91.4850,93.1050,91.4500,92.9850,3.18 M,03/14/14,1.5300000000000011,1.6729539117598833
EOG,93.1250,93.3250,90.8850,91.4550,3.76 M,03/13/14,-1.1099999999999994,-1.1991573488899687
EOG,91.8000,93.2150,90.8300,92.5650,4.09 M,03/12/14,-0.23499999999999943,-0.25323275862068906
EOG,94.9200,95.0850,92.6600,92.8000,4.10 M,03/11/14,-1.7250000000000085,-1.8249140439037381
EOG,94.9600,94.9600,93.5600,94.5250,2.76 M,03/10/14,-0.43499999999998806,-0.45808761583823515
EOG,95.7600,95.9750,94.1005,94.9600,3.92 M,03/07/14,-0.5700000000000074,-0.5966712027635375
EOG,95.3600,96.1050,94.6642,95.5300,3.45 M,03/06/14,0.2849999999999966,0.2992283059478152
EOG,96.0200,96.6100,95.0250,95.2450,3.90 M,03/05/14,-0.5349999999999966,-0.5585717268740829
EOG,95.2350,96.4600,95.1650,95.7800,4.27 M,03/04/14,1.1350000000000051,1.199218130910249
EOG,94.5250,96.0000,94.3100,94.6450,5.61 M,03/03/14,-0.06499999999999773,-0.06863055643543209
EOG,93.8600,95.5400,93.5550,94.7100,5.08 M,02/28/14,0.9749999999999943,1.0401664266282544
EOG,93.2050,93.8225,92.2450,93.7350,3.78 M,02/27/14,0.5150000000000006,0.5524565543874711
EOG,91.8050,94.2045,91.4400,93.2200,7.21 M,02/26/14,1.2199999999999989,1.326086956521738
EOG,91.4250,92.5650,89.6250,92.0000,7.47 M,02/25/14,1.7999999999999972,1.9955654101995532
EOG,89.2150,90.8100,88.5150,90.2000,7.07 M,02/24/14,1.2000000000000028,1.3483146067415763
EOG,90.2350,90.4850,88.9700,89.0000,5.41 M,02/21/14,-1.0150000000000006,-1.1275898461367555
EOG,89.5200,91.0300,89.0750,90.0150,4.51 M,02/20/14,0.5849999999999937,0.6541429050654073
EOG,89.5250,90.8050,89.2000,89.4300,3.83 M,02/19/14,-0.5299999999999869,-0.5891507336593896
EOG,89.0600,90.1300,89.0050,89.9600,3.65 M,02/18/14,1.4799999999999898,1.6726943942133699
EOG,87.8550,88.6250,87.4450,88.4800,2.34 M,02/14/14,0.7450000000000045,0.8491480025075563
EOG,86.7900,88.3765,86.3000,87.7350,3.43 M,02/13/14,0.1799999999999926,0.20558506081890537
EOG,87.8750,88.4500,87.2450,87.5550,2.59 M,02/12/14,0.19000000000001194,0.21747839523838144
EOG,87.1500,88.1050,86.7800,87.3650,3.30 M,02/11/14,0.26500000000000057,0.3042479908151557
EOG,88.3800,88.3800,86.5350,87.1000,3.54 M,02/10/14,-1.1500000000000057,-1.3031161473087882
EOG,87.3850,88.4400,86.5710,88.2500,4.18 M,02/07/14,1.625,1.875901875901876
EOG,83.8450,86.8950,83.8450,86.6250,5.14 M,02/06/14,2.8799999999999955,3.4390112842557707
EOG,84.0500,84.8500,83.3850,83.7450,4.29 M,02/05/14,-0.5450000000000017,-0.6465772926800352
EOG,81.3350,84.4950,81.2500,84.2900,6.58 M,02/04/14,3.4200000000000017,4.229009521454188
EOG,82.3050,83.4300,80.7500,80.8700,4.53 M,02/03/14,-1.75,-2.1181312030985233
EOG,82.3350,83.8000,81.5900,82.6200,2.64 M,01/31/14,-0.4449999999999932,-0.5357250346114407
EOG,82.5500,83.7500,82.3250,83.0650,2.26 M,01/30/14,0.7399999999999949,0.8988764044943758
EOG,82.9600,83.0800,81.7702,82.3250,3.28 M,01/29/14,-1.2849999999999966,-1.5368975002990033
EOG,81.6900,83.7500,81.1450,83.6100,3.29 M,01/28/14,2.5600000000000023,3.1585441085749566
EOG,82.5850,82.7450,80.6300,81.0500,3.81 M,01/27/14,-1.7150000000000034,-2.0721319398296423
EOG,84.0250,84.5200,82.5601,82.7650,5.65 M,01/24/14,-1.8199999999999932,-2.151681740261268
EOG,84.8900,85.8700,84.1150,84.5850,4.48 M,01/23/14,-1.2750000000000057,-1.4849755415793218
EOG,85.0975,86.1500,84.6250,85.8600,3.59 M,01/22/14,1.2450000000000045,1.471370324410571
EOG,84.5800,85.2750,84.0700,84.6150,3.20 M,01/21/14,0.1349999999999909,0.15980113636362558
EOG,85.4800,85.9400,84.4600,84.4800,3.33 M,01/17/14,-0.5699999999999932,-0.6701940035273288
EOG,85.0500,85.5850,84.3500,85.0500,3.34 M,01/16/14,-0.13000000000000966,-0.1526179854426035
EOG,84.7300,86.6400,84.7000,85.1800,4.09 M,01/15/14,0.8800000000000097,1.0438908659549344
EOG,82.0300,84.3650,81.8150,84.3000,3.22 M,01/14/14,2.569999999999993,3.1445001835311306
EOG,83.7050,84.1350,81.4850,81.7300,2.67 M,01/13/14,-1.6749999999999972,-2.0082728853186227
EOG,83.7300,84.0500,82.9950,83.4050,2.95 M,01/10/14,-0.09499999999999886,-0.113772455089819
EOG,83.7050,84.4450,82.7400,83.5000,3.54 M,01/09/14,0.10999999999999943,0.1319103009953225
EOG,83.0100,83.9150,82.5250,83.3900,2.86 M,01/08/14,-0.03499999999999659,-0.04195385076415534
EOG,82.5350,83.4550,81.8525,83.4250,3.29 M,01/07/14,1.414999999999992,1.7253993415437043
EOG,82.3850,82.6650,81.1675,82.0100,3.65 M,01/06/14,-0.269999999999996,-0.32814778804083133
EOG,82.8750,83.3250,81.9052,82.2800,2.69 M,01/03/14,-0.23000000000000398,-0.278754090413288
EOG,83.2850,83.9780,82.0300,82.5100,2.94 M,01/02/14,-1.4099999999999966,-1.6801715919923697
EOG,83.6700,84.4250,83.2351,83.9200,2.11 M,12/31/13,0.24500000000000455,0.2927995219599696
EOG,84.4750,85.2500,83.0975,83.6750,2.81 M,12/30/13,-0.9050000000000011,-1.0699929061243807
EOG,84.0700,84.7380,83.8400,84.5800,1.69 M,12/27/13,0.5699999999999932,0.6784906558742925
EOG,84.2300,84.7699,83.8350,84.0100,1.77 M,12/26/13,-0.11999999999999034,-0.1426363960537149
EOG,83.9100,84.1350,83.1150,84.1300,978182,12/24/13,0.3199999999999932,0.38181601240901225
EOG,84.6300,84.9200,83.4150,83.8100,3.03 M,12/23/13,-0.45000000000000284,-0.5340612390220779
EOG,82.8750,84.6600,82.7250,84.2600,6.27 M,12/20/13,1.5949999999999989,1.9294743845642035
EOG,80.8350,82.9550,80.5900,82.6650,5.08 M,12/19/13,1.6650000000000063,2.0555555555555634
EOG,79.8250,81.1900,79.1650,81.0000,5.97 M,12/18/13,1.1749999999999972,1.471969934231127
EOG,79.9750,80.2600,78.7550,79.8250,3.47 M,12/17/13,-0.045000000000001705,-0.05634155502692088
EOG,79.6700,80.9850,79.6700,79.8700,4.12 M,12/16/13,0.35999999999999943,0.4527732360709337
EOG,78.8350,79.6750,78.2450,79.5100,4.49 M,12/13/13,0.3299999999999983,0.4167719120990127
EOG,78.3600,79.6600,78.1200,79.1800,3.81 M,12/12/13,1.0500000000000114,1.3439139895046863
EOG,79.3150,79.5675,78.0050,78.1300,4.24 M,12/11/13,-1.5250000000000057,-1.9145063084552203
EOG,79.2750,80.9700,79.0700,79.6550,4.55 M,12/10/13,0.585000000000008,0.7398507651448185
EOG,80.4600,80.6250,78.1550,79.0700,8.55 M,12/09/13,-0.9500000000000028,-1.1872031992002035
EOG,83.4750,83.5500,79.9450,80.0200,7.35 M,12/06/13,-2.6700000000000017,-3.228927318901925
EOG,82.6700,83.8700,82.0800,82.6900,4.48 M,12/05/13,-0.875,-1.0470890923233411
EOG,82.8000,84.5550,82.7500,83.5650,3.75 M,12/04/13,0.8250000000000028,0.997099347353158
EOG,82.2250,83.3648,80.9100,82.7400,4.17 M,12/03/13,0.23999999999999488,0.29090909090908473
EOG,83.0000,83.2750,81.5650,82.5000,3.03 M,12/02/13,0.0,0.0
EOG,83.2500,83.5550,82.0925,82.5000,2.25 M,11/29/13,-0.7150000000000034,-0.8592200925313986
EOG,84.4650,84.8450,82.7600,83.2150,3.36 M,11/27/13,-1.384999999999991,-1.6371158392434881
EOG,84.6750,85.7395,83.8500,84.6000,3.18 M,11/26/13,0.0049999999999954525,0.005910514805834213
EOG,84.6600,84.6850,82.8350,84.5950,3.78 M,11/25/13,-0.480000000000004,-0.5642080517190761
EOG,85.1000,85.2050,83.6750,85.0750,2.54 M,11/22/13,0.4200000000000017,0.4961313566830095
EOG,84.0600,84.9800,83.9000,84.6550,3.08 M,11/21/13,1.1950000000000074,1.4318236280853194
EOG,84.4225,84.8800,83.1055,83.4600,3.01 M,11/20/13,-0.48499999999999943,-0.5777592471260938
EOG,84.0600,84.7350,82.8255,83.9450,3.11 M,11/19/13,-0.31500000000001194,-0.37384286731546634
EOG,85.7500,86.1000,83.7350,84.2600,3.03 M,11/18/13,-1.4299999999999926,-1.6688061617458194
EOG,85.1400,86.0695,83.9400,85.6900,4.32 M,11/15/13,0.855000000000004,1.0078387458006766
EOG,84.7450,85.0400,83.9750,84.8350,3.69 M,11/14/13,0.10499999999998977,0.12392304968722974
EOG,83.2200,84.9288,82.8925,84.7300,4.71 M,11/13/13,1.1800000000000068,1.4123279473369321
EOG,85.3500,85.5400,82.9000,83.5500,4.58 M,11/12/13,-2.174999999999997,-2.537182852143479
EOG,85.6050,85.8200,84.8155,85.7250,3.29 M,11/11/13,0.24499999999999034,0.2866167524567037
EOG,85.5600,86.6300,85.2800,85.4800,5.54 M,11/08/13,-0.3100000000000023,-0.36134747639585296
EOG,89.6550,90.1200,82.5255,85.7900,9.04 M,11/07/13,-2.529999999999987,-2.864583333333319
EOG,90.6650,91.4500,87.9700,88.3200,4.67 M,11/06/13,-1.5450000000000017,-1.7192455349691222
EOG,91.6700,91.6700,89.7600,89.8650,3.69 M,11/05/13,-1.865000000000009,-2.0331407391257046
EOG,90.2350,91.8000,89.8648,91.7300,2.74 M,11/04/13,2.240000000000009,2.503072969046831
EOG,89.3050,90.0150,87.7010,89.4900,3.63 M,11/01/13,0.28999999999999204,0.32511210762330944
EOG,89.9900,90.4550,88.3550,89.2000,3.95 M,10/31/13,-0.9650000000000034,-1.0702600787445276
EOG,93.1600,93.4250,89.4450,90.1650,3.92 M,10/30/13,-2.375,-2.566457748000864
EOG,91.4350,92.8850,91.1550,92.5400,2.86 M,10/29/13,1.3300000000000125,1.4581734458941045
EOG,91.9150,91.9500,90.9375,91.2100,1.84 M,10/28/13,-0.5100000000000051,-0.5560401221107775
EOG,91.1750,92.0450,90.6450,91.7200,2.58 M,10/25/13,1.0049999999999955,1.1078652923992673
EOG,89.0300,91.2825,88.0550,90.7150,4.08 M,10/24/13,1.4950000000000045,1.6756332660838429
EOG,91.5600,91.5600,88.2550,89.2200,5.44 M,10/23/13,-3.355000000000004,-3.624088576829602
EOG,93.3950,94.1500,91.7900,92.5750,3.93 M,10/22/13,0.41500000000000625,0.45030381944445125
EOG,91.5000,92.7500,91.3250,92.1600,2.41 M,10/21/13,0.26500000000000057,0.2883725991620878
EOG,91.3300,92.0850,90.4200,91.8950,4.31 M,10/18/13,1.2000000000000028,1.3231159380340736
EOG,90.8400,91.2000,89.6500,90.6950,4.64 M,10/17/13,-0.45000000000000284,-0.49371879971474336
EOG,91.2400,92.9350,90.7350,91.1450,4.59 M,10/16/13,1.1599999999999966,1.2891037395121372
EOG,90.1250,90.9900,89.5000,89.9850,3.04 M,10/15/13,-0.5450000000000017,-0.602010383298356
EOG,88.6800,90.5400,88.1650,90.5300,2.46 M,10/14/13,1.0349999999999966,1.1564891893401827
EOG,87.1600,90.4750,87.1250,89.4950,3.90 M,10/11/13,2.0649999999999977,2.361889511609285
EOG,86.6950,87.4700,86.4700,87.4300,3.03 M,10/10/13,1.6700000000000017,1.9472947761194048
EOG,86.1650,86.7800,84.8000,85.7600,3.84 M,10/09/13,0.030000000000001137,0.034993584509507916
EOG,86.1700,87.3250,85.2050,85.7300,3.55 M,10/08/13,-0.6850000000000023,-0.7926864548978791
EOG,86.1050,87.1050,85.6255,86.4150,3.42 M,10/07/13,-0.8799999999999955,-1.0080760639211817
EOG,85.9600,87.4308,85.2700,87.2950,3.21 M,10/04/13,1.394999999999996,1.6239813736903328
EOG,85.9750,86.1150,84.9950,85.9000,2.52 M,10/03/13,-0.28000000000000114,-0.3249013692272002
EOG,85.9350,86.1800,84.5900,86.1800,2.72 M,10/02/13,0.10500000000000398,0.12198663955852916
EOG,84.3050,86.4150,84.2750,86.0750,2.81 M,10/01/13,1.4350000000000023,1.695415879017016
EOG,83.7800,85.1700,83.5600,84.6400,2.59 M,09/30/13,-0.7249999999999943,-0.8492942072277799
EOG,85.6150,85.8320,84.9000,85.3650,1.66 M,09/27/13,-0.6800000000000068,-0.7902841536405448
EOG,85.8600,86.0850,84.9100,86.0450,1.93 M,09/26/13,0.355000000000004,0.4142840471466962
EOG,86.0450,86.6445,85.3650,85.6900,3.51 M,09/25/13,-0.355000000000004,-0.4125748155035202
EOG,84.7050,86.9600,84.3100,86.0450,4.23 M,09/24/13,1.6149999999999949,1.9128271941253048
EOG,84.2850,84.8550,84.0550,84.4300,2.65 M,09/23/13,-0.0049999999999954525,-0.005921714928637949
EOG,85.2500,85.7650,84.2650,84.4350,3.69 M,09/20/13,-0.9299999999999926,-1.0894394658232212
EOG,86.0500,86.4050,84.6750,85.3650,2.12 M,09/19/13,-0.5300000000000011,-0.6170324233075279
EOG,83.6300,86.1800,83.6000,85.8950,2.87 M,09/18/13,2.009999999999991,2.3961375692912807
EOG,83.2550,84.1800,82.8942,83.8850,2.07 M,09/17/13,0.9849999999999994,1.1881785283474058
EOG,83.7700,83.9950,82.5400,82.9000,2.47 M,09/16/13,-0.3199999999999932,-0.3845229512136424
EOG,83.8750,84.0700,83.0500,83.2200,2.09 M,09/13/13,-0.7750000000000057,-0.9226739686886192
EOG,83.7700,84.3850,83.5000,83.9950,3.13 M,09/12/13,0.4200000000000017,0.5025426263834899
EOG,81.7250,83.6850,81.4200,83.5750,3.62 M,09/11/13,1.8250000000000028,2.2324159021406764
EOG,81.7500,82.3600,80.4650,81.7500,3.42 M,09/10/13,-0.07500000000000284,-0.09165902841430228
EOG,81.5500,82.0000,81.0850,81.8250,3.75 M,09/09/13,0.9650000000000034,1.1934207271827892
EOG,81.2850,82.1650,80.2900,80.8600,3.77 M,09/06/13,0.14499999999999602,0.17964442792541166
EOG,80.6100,81.3100,80.4750,80.7150,1.97 M,09/05/13,0.45000000000000284,0.5606428704915004
EOG,78.7450,80.5050,78.7450,80.2650,2.61 M,09/04/13,1.0499999999999972,1.3255065328536226
EOG,79.7300,80.2458,78.5250,79.2150,2.21 M,09/03/13,0.6899999999999977,0.8787010506208184
EOG,78.7500,79.1600,78.1450,78.5250,2.17 M,08/30/13,-0.01999999999999602,-0.02546311031892039
EOG,79.3650,79.6500,78.3400,78.5450,2.00 M,08/29/13,-1.1850000000000023,-1.4862661482503476
EOG,78.4700,80.6585,78.4150,79.7300,3.52 M,08/28/13,1.585000000000008,2.0282807601254182
EOG,78.0800,79.2815,78.0000,78.1450,2.28 M,08/27/13,-0.4100000000000108,-0.5219273120743565
EOG,78.6300,79.8050,78.4150,78.5550,2.22 M,08/26/13,0.24500000000000455,0.31285914953390953
EOG,77.2000,78.3950,76.7700,78.3100,2.09 M,08/23/13,1.1099999999999994,1.4378238341968903
EOG,76.3650,77.6800,76.2250,77.2000,1.46 M,08/22/13,1.2800000000000011,1.6859852476290846
EOG,77.1850,77.1850,75.6950,75.9200,2.36 M,08/21/13,-1.3900000000000006,-1.7979562799120432
EOG,76.3500,77.9450,76.0805,77.3100,2.40 M,08/20/13,0.9650000000000034,1.2639989521252255
EOG,77.7600,78.0600,76.2700,76.3450,2.75 M,08/19/13,-1.4000000000000057,-1.8007588912470327
EOG,77.7650,78.4450,77.1550,77.7450,2.50 M,08/16/13,-0.5499999999999972,-0.7024714221853211
EOG,77.7700,78.8900,77.1450,78.2950,2.55 M,08/15/13,0.09499999999999886,0.12148337595907782
EOG,79.0600,79.4500,78.0616,78.2000,2.55 M,08/14/13,-0.9200000000000017,-1.1627906976744207
EOG,79.5000,79.5770,78.3800,79.1200,2.28 M,08/13/13,-0.2599999999999909,-0.3275384227765066
EOG,79.0800,80.2250,78.7300,79.3800,4.00 M,08/12/13,-0.04000000000000625,-0.050365147318063776
EOG,79.3300,79.9850,79.0000,79.4200,3.66 M,08/09/13,0.12999999999999545,0.1639551015260379
EOG,78.9300,80.1250,78.1550,79.2900,4.72 M,08/08/13,1.1800000000000068,1.5106900524900868
EOG,80.1550,80.7350,77.6450,78.1100,9.41 M,08/07/13,1.5,1.9579689335595876
EOG,77.0500,77.4550,75.6525,76.6100,4.96 M,08/06/13,-0.480000000000004,-0.6226488519911842
EOG,76.4700,77.5200,76.0750,77.0900,3.57 M,08/05/13,0.5750000000000028,0.7514866366072049
EOG,75.3800,76.6050,75.1250,76.5150,2.82 M,08/02/13,0.480000000000004,0.6312882225291037
EOG,73.7850,76.4550,73.7850,76.0350,4.00 M,08/01/13,3.289999999999992,4.522647604646356
EOG,72.3100,74.0850,72.3100,72.7450,3.47 M,07/31/13,0.6950000000000074,0.964607911172807
EOG,72.5250,72.8900,70.7750,72.0500,3.27 M,07/30/13,-0.3050000000000068,-0.4215327206136505
EOG,72.6600,72.7600,71.9350,72.3550,1.63 M,07/29/13,-0.5150000000000006,-0.7067380266227535
EOG,73.1200,73.3600,72.1200,72.8700,2.97 M,07/26/13,-0.8149999999999977,-1.1060595779330904
EOG,72.0350,73.7000,72.0000,73.6850,3.93 M,07/25/13,1.6500000000000057,2.2905532033039573
EOG,74.5450,74.5700,71.5800,72.0350,6.08 M,07/24/13,-2.2849999999999966,-3.0745425188374553
EOG,74.8100,74.9900,74.0062,74.3200,3.27 M,07/23/13,-0.42500000000001137,-0.5685999063482658
EOG,74.3150,75.0250,73.7700,74.7450,3.24 M,07/22/13,0.4100000000000108,0.5515571399744547
EOG,73.9050,74.3500,73.2550,74.3350,2.74 M,07/19/13,0.8349999999999937,1.136054421768699
EOG,73.2100,74.1350,73.1100,73.5000,3.07 M,07/18/13,0.5849999999999937,0.8023040526640522
EOG,72.5250,73.2100,72.3250,72.9150,2.75 M,07/17/13,0.6350000000000051,0.8785279468732777
EOG,71.8900,72.7675,71.8750,72.2800,3.74 M,07/16/13,0.5100000000000051,0.7106033161488159
EOG,72.3150,72.8076,71.2925,71.7700,3.46 M,07/15/13,-0.585000000000008,-0.8085135788819127
EOG,71.5500,72.3850,70.9550,72.3550,3.78 M,07/12/13,0.5799999999999983,0.8080808080808056
EOG,72.0000,73.3950,71.4450,71.7750,5.60 M,07/11/13,0.6400000000000006,0.899697757784495
EOG,71.3450,71.8400,70.8150,71.1350,3.53 M,07/10/13,0.025000000000005684,0.03515679932499745
EOG,70.4750,71.2350,70.1950,71.1100,3.55 M,07/09/13,1.230000000000004,1.7601602747567315
EOG,70.7500,71.2650,69.5050,69.8800,3.43 M,07/08/13,-0.3200000000000074,-0.45584045584046634
EOG,69.5300,70.3200,69.3150,70.2000,2.28 M,07/05/13,1.1099999999999994,1.606600086843247
EOG,69.0000,69.2500,68.4050,69.0900,1.71 M,07/03/13,0.15000000000000568,0.21758050478677934
EOG,67.6200,69.6350,67.6200,68.9400,4.34 M,07/02/13,1.2849999999999966,1.8993422511270366
EOG,66.8950,68.2150,66.6200,67.6550,3.23 M,07/01/13,1.8149999999999977,2.756682867557712
EOG,65.2150,66.4950,65.0100,65.8400,3.43 M,06/28/13,0.33500000000000796,0.5114113426456117
EOG,66.5800,67.0400,65.3600,65.5050,3.61 M,06/27/13,-0.4200000000000017,-0.6370875995449401
EOG,65.5950,66.2750,64.7650,65.9250,2.51 M,06/26/13,0.8499999999999943,1.3061851709565797
EOG,64.5100,65.5500,64.1100,65.0750,3.44 M,06/25/13,1.3700000000000045,2.1505376344086096
EOG,64.4450,64.7300,62.2650,63.7050,3.96 M,06/24/13,-1.4950000000000045,-2.2929447852760805
EOG,66.1200,66.1975,64.2850,65.2000,4.79 M,06/21/13,-0.2950000000000017,-0.4504160622948342
EOG,66.8600,66.9450,64.8955,65.4950,4.40 M,06/20/13,-2.299999999999997,-3.392580573788623
EOG,67.4850,68.9950,67.3900,67.7950,3.41 M,06/19/13,0.2849999999999966,0.4221596800473953
EOG,66.7500,67.9800,66.5702,67.5100,2.80 M,06/18/13,0.8449999999999989,1.2675316882922054
EOG,66.6000,67.1700,66.0800,66.6650,2.38 M,06/17/13,0.7950000000000017,1.2069227265826654
EOG,66.8050,66.8050,65.5650,65.8700,2.69 M,06/14/13,-0.7950000000000017,-1.1925298132453335
EOG,64.8400,66.7500,64.6750,66.6650,3.14 M,06/13/13,1.8500000000000085,2.854277559206987
EOG,65.6300,65.8850,64.7400,64.8150,2.71 M,06/12/13,0.2599999999999909,0.40275733870341707
EOG,64.6450,65.1600,64.1200,64.5550,2.79 M,06/11/13,-1.2549999999999955,-1.907005014435489
EOG,66.1650,66.3000,65.5750,65.8100,1.53 M,06/10/13,-0.5300000000000011,-0.798914681941515
EOG,65.5500,66.8227,65.1000,66.3400,2.24 M,06/07/13,1.0200000000000102,1.5615431720759496
EOG,64.4550,65.3250,63.7600,65.3200,2.99 M,06/06/13,1.059999999999988,1.6495487083722191
EOG,65.8300,65.9850,64.2450,64.2600,2.89 M,06/05/13,-1.8199999999999932,-2.7542372881355828
EOG,65.7350,66.3200,65.1650,66.0800,3.55 M,06/04/13,0.2049999999999983,0.311195445920301
EOG,65.0750,66.0650,64.8600,65.8750,2.90 M,06/03/13,1.3250000000000028,2.05267234701782
EOG,65.8650,66.2975,64.5450,64.5500,3.44 M,05/31/13,-1.7950000000000017,-2.7055542994950663
EOG,66.1650,66.9700,65.4475,66.3450,2.44 M,05/30/13,-0.07000000000000739,-0.10539787698563184
EOG,65.1700,66.7100,65.0600,66.4150,3.15 M,05/29/13,0.855000000000004,1.3041488712629712
EOG,66.2300,66.6250,64.7550,65.5600,3.51 M,05/28/13,0.14499999999999602,0.22166169838721395
EOG,64.8650,65.4750,64.3150,65.4150,2.41 M,05/24/13,-0.2849999999999966,-0.43378995433789436
EOG,64.4850,65.8200,64.1150,65.7000,3.63 M,05/23/13,0.23499999999999943,0.35897044222103325
EOG,67.0800,67.7650,64.9100,65.4650,4.04 M,05/22/13,-1.6749999999999972,-2.4947870122132816
EOG,67.8900,68.1325,67.0250,67.1400,2.49 M,05/21/13,-0.6650000000000063,-0.9807536317380815
EOG,67.6850,68.5750,67.4350,67.8050,4.07 M,05/20/13,0.18000000000000682,0.26617375231054613
EOG,66.9000,67.9450,66.7550,67.6250,5.24 M,05/17/13,1.0150000000000006,1.5237952259420515
EOG,67.2550,67.4600,66.3700,66.6100,3.96 M,05/16/13,-0.7349999999999994,-1.0913950553121976
EOG,68.2450,68.8200,67.0250,67.3450,4.22 M,05/15/13,-0.9899999999999949,-1.4487451525572475
EOG,67.0000,68.4850,66.9100,68.3350,3.96 M,05/14/13,1.5049999999999955,2.251982642525805
EOG,66.4100,67.2700,66.1550,66.8300,3.21 M,05/13/13,0.03999999999999204,0.059889204970792094
EOG,67.7450,67.7450,65.8505,66.7900,4.90 M,05/10/13,-1.25,-1.8371546149323925
EOG,69.4050,69.5000,67.7650,68.0400,5.61 M,05/09/13,-0.9099999999999966,-1.3197969543147159
EOG,68.0200,69.3880,67.9600,68.9500,6.43 M,05/08/13,1.105000000000004,1.6287125064485282
EOG,66.8950,68.9800,66.4800,67.8450,10.45 M,05/07/13,4.824999999999996,7.656299587432554
EOG,62.3000,63.3650,61.6300,63.0200,5.61 M,05/06/13,1.0300000000000011,1.661558315857398
EOG,60.7000,62.1000,60.7000,61.9900,4.34 M,05/03/13,2.155000000000001,3.6015709868805903
EOG,59.6250,60.1310,59.0000,59.8350,3.08 M,05/02/13,0.4200000000000017,0.7068921989396646
EOG,60.1950,60.1950,58.8800,59.4150,3.68 M,05/01/13,-1.1649999999999991,-1.9230769230769218
EOG,60.9000,61.3700,60.2950,60.5800,3.57 M,04/30/13,-0.3850000000000051,-0.6315098827196015
EOG,60.2500,61.3600,59.9400,60.9650,2.33 M,04/29/13,1.4050000000000011,2.3589657488247164
EOG,60.8500,60.9550,59.5000,59.5600,4.68 M,04/26/13,-1.3699999999999974,-2.2484818644345927
EOG,60.0800,61.7650,59.6800,60.9300,4.52 M,04/25/13,0.9649999999999963,1.609272075377297
EOG,58.5200,60.2250,58.5000,59.9650,3.84 M,04/24/13,1.4650000000000034,2.50427350427351
EOG,58.4500,58.6900,57.6350,58.5000,4.44 M,04/23/13,0.29999999999999716,0.5154639175257683
EOG,56.9750,58.4100,56.7550,58.2000,4.33 M,04/22/13,1.480000000000004,2.609308885754591
EOG,58.0800,58.1400,56.4650,56.7200,4.96 M,04/19/13,-0.9350000000000023,-1.6217153759431138
EOG,57.6950,57.9800,56.0250,57.6550,6.90 M,04/18/13,0.24500000000000455,0.4267549207455227
EOG,58.7050,58.9300,56.7300,57.4100,6.13 M,04/17/13,-2.1650000000000063,-3.6340746957616554
EOG,58.9150,59.8200,57.9100,59.5750,4.54 M,04/16/13,1.480000000000004,2.5475514243910906
EOG,61.1800,61.1850,58.0650,58.0950,5.78 M,04/15/13,-3.969999999999999,-6.396519777652459
EOG,63.6500,63.9000,62.0050,62.0650,4.05 M,04/12/13,-2.0649999999999977,-3.2200218306564756
EOG,64.5050,64.8300,63.8600,64.1300,2.96 M,04/11/13,-0.18000000000000682,-0.2798942621676362
EOG,64.2800,65.1000,64.2400,64.3100,2.72 M,04/10/13,0.18500000000000227,0.28849902534113414
EOG,63.5350,64.6050,63.1000,64.1250,2.29 M,04/09/13,0.6799999999999997,1.0717944676491444
EOG,62.4700,63.6100,62.2650,63.4450,2.53 M,04/08/13,1.0700000000000003,1.7154308617234473
EOG,60.5000,62.4350,60.3800,62.3750,4.26 M,04/05/13,0.9450000000000003,1.5383363177600526
EOG,63.0350,63.0350,61.3150,61.4300,4.75 M,04/04/13,-1.6199999999999974,-2.569389373513081
EOG,64.5250,64.7100,62.8750,63.0500,3.34 M,04/03/13,-1.4750000000000085,-2.2859356838434843
EOG,64.4000,65.0250,64.0175,64.5250,3.11 M,04/02/13,0.27000000000001023,0.4202007625865851
EOG,64.0350,64.4150,63.3150,64.2550,2.26 M,04/01/13,0.21999999999999886,0.3435621144686482
EOG,64.0850,64.5750,63.7150,64.0350,3.04 M,03/28/13,-0.06499999999999773,-0.10140405616224295
EOG,63.9450,64.3350,63.0950,64.1000,3.71 M,03/27/13,-0.3500000000000085,-0.5430566330488883
EOG,62.2400,64.6950,62.1850,64.4500,4.87 M,03/26/13,2.490000000000002,4.0187217559715975
EOG,62.8850,63.4000,61.5150,61.9600,3.09 M,03/25/13,-0.5300000000000011,-0.8481357017122757
EOG,62.2200,62.5350,61.8100,62.4900,2.79 M,03/22/13,0.5399999999999991,0.8716707021791753
EOG,62.6350,63.4250,61.9250,61.9500,4.03 M,03/21/13,-1.1699999999999946,-1.8536121673003718
EOG,64.1800,64.3990,63.0850,63.1200,3.79 M,03/20/13,-0.5150000000000006,-0.8093030564940686
EOG,64.5500,64.7600,63.3550,63.6350,2.51 M,03/19/13,-0.8300000000000054,-1.2875203598852174
EOG,64.4550,65.2100,64.1600,64.4650,2.77 M,03/18/13,-0.7449999999999903,-1.1424628124520633
EOG,65.7350,66.4200,65.2050,65.2100,4.98 M,03/15/13,-0.7050000000000125,-1.0695592808920769
EOG,65.2450,66.0050,65.1350,65.9150,2.85 M,03/14/13,0.9750000000000085,1.5013858946720182
EOG,65.0000,65.5885,64.7450,64.9400,2.63 M,03/13/13,-0.10000000000000853,-0.15375153751538825
EOG,64.7500,65.2000,64.5600,65.0400,2.59 M,03/12/13,0.710000000000008,1.1036841287113446
EOG,64.1650,64.6850,63.7055,64.3300,2.08 M,03/11/13,-0.010000000000005116,-0.015542430836190729
EOG,64.0950,64.4600,63.7450,64.3400,2.45 M,03/08/13,0.5600000000000023,0.8780181875196021
EOG,62.8750,64.1155,62.6850,63.7800,2.44 M,03/07/13,0.980000000000004,1.5605095541401337
EOG,62.5900,62.9750,62.1600,62.8000,4.09 M,03/06/13,0.44999999999999574,0.7217321571772185
EOG,61.5400,62.5250,61.2100,62.3500,3.92 M,03/05/13,1.4549999999999983,2.3893587322440237
EOG,61.3900,61.4400,60.5000,60.8950,3.75 M,03/04/13,-0.6049999999999969,-0.9837398373983689
EOG,62.3200,62.6750,61.1150,61.5000,5.73 M,03/01/13,-1.3549999999999969,-2.1557553098401034
EOG,63.2200,63.9800,62.8000,62.8550,4.33 M,02/28/13,-0.605000000000004,-0.9533564450047336
EOG,61.5550,63.5650,61.3850,63.4600,4.72 M,02/27/13,1.7100000000000009,2.7692307692307705
EOG,61.1850,61.9250,60.3800,61.7500,3.93 M,02/26/13,0.865000000000002,1.420711176808741
EOG,62.8350,63.4800,60.8250,60.8850,5.19 M,02/25/13,-1.7850000000000037,-2.84825275251317
EOG,62.5000,62.9200,61.8450,62.6700,4.55 M,02/22/13,0.6499999999999986,1.0480490164463052
EOG,63.2450,63.5300,61.7750,62.0200,5.83 M,02/21/13,-1.6749999999999972,-2.629719758222776
EOG,65.7150,65.8700,63.6600,63.6950,4.94 M,02/20/13,-2.0050000000000026,-3.0517503805175075
EOG,65.2800,65.7900,65.0200,65.7000,3.94 M,02/19/13,1.105000000000004,1.7106587197151544
EOG,66.6300,67.0000,63.8900,64.5950,6.35 M,02/15/13,-2.0700000000000074,-3.1050776269406843
EOG,69.0350,69.1000,66.5400,66.6650,5.91 M,02/14/13,-0.1349999999999909,-0.20209580838321992
EOG,67.0500,67.2000,66.3500,66.8000,3.18 M,02/13/13,-0.25,-0.37285607755406414
EOG,66.7500,67.3450,66.4000,67.0500,3.46 M,02/12/13,0.37999999999999545,0.5699715014249219
EOG,66.6450,66.8425,66.0600,66.6700,3.40 M,02/11/13,0.030000000000001137,0.045018007202882855
EOG,65.0700,66.6950,65.0700,66.6400,3.60 M,02/08/13,1.7549999999999955,2.7047853895353247
EOG,64.8600,65.0550,64.0250,64.8850,2.32 M,02/07/13,0.05000000000001137,0.07711884013266194
EOG,63.8650,64.9600,63.7650,64.8350,1.73 M,02/06/13,0.42499999999999716,0.6598354292811631
