PPG,107.9700,108.0900,106.4400,107.7000,1.17 M,04/26/18,-0.1799999999999926,-0.16685205784203988
PPG,107.4600,109.4700,105.9200,107.8800,2.65 M,04/25/18,2.1099999999999994,1.9948945825848534
PPG,108.9700,109.4500,104.3900,105.7700,2.37 M,04/24/18,-3.1099999999999994,-2.856355620867009
PPG,108.8000,109.8000,108.7000,108.8800,1.43 M,04/23/18,0.009999999999990905,0.009185266831993116
PPG,109.4600,110.1670,108.2400,108.8700,1.97 M,04/20/18,-0.769999999999996,-0.7022984312294747
PPG,113.7500,113.8950,108.3800,109.6400,2.37 M,04/19/18,-3.549999999999997,-3.136319462850073
PPG,113.3100,113.8300,112.7750,113.1900,2.16 M,04/18/18,0.10999999999999943,0.09727626459143919
PPG,112.2000,113.4900,111.6650,113.0800,1.60 M,04/17/18,1.3100000000000023,1.1720497450120804
PPG,110.8800,112.0000,110.4550,111.7700,1.74 M,04/16/18,1.769999999999996,1.6090909090909056
PPG,110.6500,110.9300,109.5600,110.0000,1.19 M,04/13/18,-0.04000000000000625,-0.03635041802981302
PPG,109.7500,110.4300,108.6300,110.0400,1.90 M,04/12/18,0.7600000000000051,0.6954612005856562
PPG,109.3800,109.8500,108.5700,109.2800,1.30 M,04/11/18,-1.0799999999999983,-0.9786154403769466
PPG,110.6200,111.2500,109.9000,110.3600,1.53 M,04/10/18,0.75,0.6842441383085485
PPG,110.3000,111.3700,109.3700,109.6100,1.27 M,04/09/18,0.21999999999999886,0.2011152756193426
PPG,110.6000,111.8600,108.4000,109.3900,1.68 M,04/06/18,-2.280000000000001,-2.041730097609028
PPG,111.7000,112.3000,111.0900,111.6700,1.47 M,04/05/18,0.8799999999999955,0.7942955140355586
PPG,108.3900,110.8900,107.9500,110.7900,1.26 M,04/04/18,0.6099999999999994,0.5536394990016331
PPG,108.5000,110.4300,107.7900,110.1800,2.20 M,04/03/18,1.9200000000000017,1.7735082209495674
PPG,111.5500,111.5800,107.0400,108.2600,1.50 M,04/02/18,-3.339999999999989,-2.9928315412186284
PPG,110.3600,112.5300,110.0400,111.6000,1.28 M,03/29/18,1.6299999999999955,1.4822224242975315
PPG,112.1800,112.8400,109.9350,109.9700,2.02 M,03/28/18,-1.9399999999999977,-1.7335358770440512
PPG,112.5900,113.9200,111.4700,111.9100,1.53 M,03/27/18,-0.020000000000010232,-0.01786831055124652
PPG,110.6200,112.1000,110.0100,111.9300,1.19 M,03/26/18,2.450000000000003,2.2378516624040947
PPG,111.4400,112.4900,109.3900,109.4800,1.37 M,03/23/18,-1.8299999999999983,-1.6440571377234734
PPG,113.1200,113.7600,111.1200,111.3100,1.25 M,03/22/18,-2.6400000000000006,-2.3168056164984647
PPG,114.0000,115.4500,113.7150,113.9500,1.23 M,03/21/18,0.10000000000000853,0.08783487044357359
PPG,115.0000,115.5800,113.7000,113.8500,1.45 M,03/20/18,0.6299999999999955,0.5564387917329053
PPG,114.4200,114.8600,112.6200,113.2200,1.11 M,03/19/18,-1.710000000000008,-1.4878621769772973
PPG,114.2900,115.2100,113.8500,114.9300,2.41 M,03/16/18,0.6500000000000057,0.568778438921951
PPG,115.2100,115.8400,113.9650,114.2800,1.13 M,03/15/18,-0.7600000000000051,-0.6606397774687109
PPG,116.4800,116.7500,114.6800,115.0400,1.00 M,03/14/18,-1.029999999999987,-0.887395537175831
PPG,117.2000,117.8300,115.4800,116.0700,1.34 M,03/13/18,-0.39000000000000057,-0.33487892838742966
PPG,117.6500,118.6200,115.6000,116.4600,1.29 M,03/12/18,-1.190000000000012,-1.0114747131321817
PPG,116.2100,117.7400,115.9500,117.6500,1.41 M,03/09/18,2.25,1.949740034662045
PPG,115.4100,115.6400,114.8400,115.4000,1.06 M,03/08/18,0.38000000000000966,0.3303773256824984
PPG,113.7800,115.3200,113.7000,115.0200,1.31 M,03/07/18,-0.04999999999999716,-0.04345181194055545
PPG,113.0900,116.1400,112.7000,115.0700,1.53 M,03/06/18,2.309999999999988,2.048598793898535
PPG,109.5000,113.0900,109.5000,112.7600,2.00 M,03/05/18,2.510000000000005,2.27664399092971
PPG,110.2300,110.8900,109.5900,110.2500,1.36 M,03/02/18,-0.8599999999999994,-0.7740077400774003
PPG,111.9500,113.1300,110.3000,111.1100,1.60 M,03/01/18,-1.3299999999999983,-1.1828530771967256
PPG,113.7000,114.7200,112.2900,112.4400,2.73 M,02/28/18,-2.8700000000000045,-2.4889428497094825
PPG,117.7500,117.8800,115.2700,115.3100,1.09 M,02/27/18,-2.219999999999999,-1.8888794350378617
PPG,117.5500,117.7500,116.2400,117.5300,964881,02/26/18,0.07000000000000739,0.059594755661508084
PPG,116.6800,117.6000,115.8800,117.4600,738536,02/23/18,1.5999999999999943,1.3809770412566842
PPG,116.2700,117.0950,115.5900,115.8600,919713,02/22/18,0.23999999999999488,0.20757654385054045
PPG,115.4800,117.7300,115.3200,115.6200,1.02 M,02/21/18,0.21999999999999886,0.19064124783362119
PPG,115.3500,116.1200,114.7450,115.4000,1.04 M,02/20/18,-0.7599999999999909,-0.6542699724517829
PPG,115.8600,117.2300,115.3700,116.1600,995928,02/16/18,-0.030000000000001137,-0.02581977794991061
PPG,116.2400,116.5500,114.8100,116.1900,1.28 M,02/15/18,-0.12999999999999545,-0.11176066024758895
PPG,113.8500,116.8200,113.4700,116.3200,1.28 M,02/14/18,1.759999999999991,1.5363128491620033
PPG,113.4400,114.8200,112.6000,114.5600,1.42 M,02/13/18,0.5799999999999983,0.5088612037199494
PPG,113.0000,114.7300,112.8600,113.9800,1.24 M,02/12/18,1.6099999999999994,1.4327667526919992
PPG,111.7600,113.2000,108.7400,112.3700,1.74 M,02/09/18,2.0700000000000074,1.8766999093381753
PPG,113.8900,114.2000,110.2700,110.3000,2.10 M,02/08/18,-3.8299999999999983,-3.355822307894505
PPG,113.8600,116.7400,113.4800,114.1300,2.22 M,02/07/18,0.1700000000000017,0.14917514917515068
PPG,110.3300,114.2000,109.6000,113.9600,2.39 M,02/06/18,1.9799999999999898,1.768172888015708
PPG,115.2900,117.1200,111.6200,111.9800,2.48 M,02/05/18,-3.6299999999999955,-3.1398667935299676
PPG,117.2800,117.4550,115.5100,115.6100,1.66 M,02/02/18,-2.010000000000005,-1.7088930454004463
PPG,118.1600,118.7700,115.5700,117.6200,1.39 M,02/01/18,-1.1099999999999994,-0.9348942979870288
PPG,118.8700,119.0700,118.2000,118.7300,1.40 M,01/31/18,0.38000000000000966,0.321081537811584
PPG,119.2000,119.6600,117.7800,118.3500,1.17 M,01/30/18,-1.2199999999999989,-1.0203228234506974
PPG,120.9100,121.6500,119.3800,119.5700,1.33 M,01/29/18,-1.9000000000000057,-1.5641722235943079
PPG,120.5000,121.5000,119.6200,121.4700,1.69 M,01/26/18,1.2600000000000051,1.0481657100074913
PPG,119.7600,120.7750,118.9700,120.2100,2.49 M,01/25/18,1.269999999999996,1.0677652597948513
PPG,117.5400,119.1200,117.3500,118.9400,1.99 M,01/24/18,1.6899999999999977,1.4413646055437082
PPG,116.5100,118.1100,116.5100,117.2500,1.73 M,01/23/18,0.46999999999999886,0.4024661757150187
PPG,118.2600,118.6600,116.3600,116.7800,1.67 M,01/22/18,-1.6599999999999966,-1.4015535292131007
PPG,118.0500,119.1300,116.5300,118.4400,2.95 M,01/19/18,0.030000000000001137,0.02533569799848082
PPG,115.7500,122.0697,115.1550,118.4100,3.74 M,01/18/18,3.9099999999999966,3.4148471615720495
PPG,116.6000,117.0400,114.2800,114.5000,3.86 M,01/17/18,-2.1400000000000006,-1.8347050754458167
PPG,118.5600,118.9900,116.1700,116.6400,2.37 M,01/16/18,-1.5300000000000011,-1.2947448591012958
PPG,118.0100,118.5950,117.6700,118.1700,1.47 M,01/12/18,0.6000000000000085,0.5103342689461671
PPG,116.6900,117.8600,116.1200,117.5700,1.29 M,01/11/18,0.9599999999999937,0.8232570105479751
PPG,117.9700,118.3300,116.3100,116.6100,1.38 M,01/10/18,-1.6099999999999994,-1.3618677042801552
PPG,119.0500,119.1750,118.1500,118.2200,1.01 M,01/09/18,-0.5,-0.4211590296495957
PPG,119.0000,119.1850,118.4900,118.7200,1.26 M,01/08/18,-0.20000000000000284,-0.16818028927009993
PPG,117.7400,119.0500,117.4900,118.9200,959574,01/05/18,1.4500000000000028,1.2343577083510708
PPG,118.6600,119.7600,117.3200,117.4700,1.23 M,01/04/18,-0.7199999999999989,-0.609188594635755
PPG,118.0000,118.8100,117.1400,118.1900,929811,01/03/18,0.18999999999999773,0.16101694915254045
PPG,116.9800,118.0000,116.8100,118.0000,935225,01/02/18,1.1800000000000068,1.010101010101016
PPG,117.3400,117.6800,116.8200,116.8200,867713,12/29/17,-0.3500000000000085,-0.298711274216957
PPG,116.6900,117.1700,116.2300,117.1700,533215,12/28/17,0.6800000000000068,0.5837410936561137
PPG,116.4600,116.6300,116.0200,116.4900,548021,12/27/17,0.20999999999999375,0.18059855521155294
PPG,116.4000,116.4590,116.0800,116.2800,491308,12/26/17,0.09000000000000341,0.07745933384973183
PPG,116.4200,116.5250,115.9000,116.1900,574938,12/22/17,0.009999999999990905,0.00860733344808995
PPG,116.3300,116.8900,116.0400,116.1800,645172,12/21/17,0.020000000000010232,0.0172176308540033
PPG,116.3800,117.1900,116.1100,116.1600,1.03 M,12/20/17,-0.15000000000000568,-0.12896569512510161
PPG,116.6800,116.9300,116.0000,116.3100,1.18 M,12/19/17,0.18000000000000682,0.154998708344103
PPG,115.6200,116.5300,115.3600,116.1300,1.21 M,12/18/17,1.039999999999992,0.9036406290728926
PPG,114.7000,115.4900,114.3100,115.0900,2.54 M,12/15/17,1.2700000000000102,1.1157968722544458
PPG,116.3100,116.6200,113.2600,113.8200,1.83 M,12/14/17,-2.430000000000007,-2.090322580645167
PPG,116.0800,116.9600,116.0200,116.2500,1.29 M,12/13/17,0.35999999999999943,0.31063939943049396
PPG,115.7400,116.2500,115.3400,115.8900,2.04 M,12/12/17,0.20999999999999375,0.18153526970953815
PPG,116.0600,116.4600,114.7300,115.6800,948848,12/11/17,-0.23999999999999488,-0.20703933747411565
PPG,116.2400,116.4300,115.7200,115.9200,786147,12/08/17,-0.18999999999999773,-0.1636379295495631
PPG,116.0300,116.6925,115.8900,116.1100,1.13 M,12/07/17,-0.0799999999999983,-0.06885274119975755
PPG,116.6000,117.1800,116.0300,116.1900,893462,12/06/17,-0.5600000000000023,-0.47965738758030174
PPG,117.3700,117.6400,116.6500,116.7500,1.00 M,12/05/17,-0.8100000000000023,-0.6890098673018052
PPG,117.9000,118.9200,116.8300,117.5600,1.34 M,12/04/17,1.6299999999999955,1.4060208746657425
PPG,117.3100,117.5900,114.9000,115.9300,1.54 M,12/01/17,-0.9199999999999875,-0.7873341891313543
PPG,117.1000,118.5000,116.6000,116.8500,2.05 M,11/30/17,-0.1600000000000108,-0.13674044953423706
PPG,117.4800,117.7350,116.5400,117.0100,1.16 M,11/29/17,-0.3299999999999983,-0.28123402079427157
PPG,116.2600,117.4200,116.2600,117.3400,1.83 M,11/28/17,1.490000000000009,1.2861458782909012
PPG,115.9500,116.3750,115.7100,115.8500,1.20 M,11/27/17,-0.25,-0.2153316106804479
PPG,115.8100,116.5300,115.6550,116.1000,438775,11/24/17,0.8299999999999983,0.7200485815910457
PPG,115.6300,116.5400,115.2500,115.2700,1.50 M,11/22/17,-0.07000000000000739,-0.060690133518300146
PPG,115.6100,115.8500,115.1500,115.3400,794221,11/21/17,0.46000000000000796,0.4004178272980571
PPG,114.0800,115.9100,113.8800,114.8800,1.06 M,11/20/17,1.0499999999999972,0.9224281823772267
PPG,114.0000,114.4600,113.5700,113.8300,1.81 M,11/17/17,-0.18000000000000682,-0.15788088764144093
PPG,113.7900,114.1900,113.3800,114.0100,1.40 M,11/16/17,0.6200000000000045,0.5467854308140088
PPG,114.0900,114.0900,113.2500,113.3900,951966,11/15/17,-0.9599999999999937,-0.8395277656318266
PPG,113.4900,114.5700,113.4150,114.3500,974877,11/14/17,-0.20000000000000284,-0.1745962461807096
PPG,114.2600,114.8800,114.1450,114.5500,1.25 M,11/13/17,-0.12000000000000455,-0.10464812069416983
PPG,114.6800,115.0400,114.3800,114.6700,908556,11/10/17,-0.45999999999999375,-0.3995483366628974
PPG,115.0500,115.7300,114.5600,115.1300,926982,11/09/17,-0.9900000000000091,-0.8525663107130632
PPG,116.2200,116.4500,115.5400,116.1200,877080,11/08/17,-0.21999999999999886,-0.1891009111225708
PPG,116.5500,116.9600,116.0500,116.3400,639074,11/07/17,0.0,0.0
PPG,116.5600,116.7800,116.3100,116.3400,639602,11/06/17,-0.18999999999999773,-0.1630481421093261
PPG,116.1800,116.8600,115.8900,116.5300,781619,11/03/17,0.37000000000000455,0.318526170798902
PPG,116.1000,116.2100,115.5200,116.1600,984577,11/02/17,0.23999999999999488,0.20703933747411565
PPG,116.3400,116.7200,115.4900,115.9200,1.14 M,11/01/17,-0.3199999999999932,-0.27529249827941604
PPG,116.5700,117.0900,116.0300,116.2400,1.16 M,10/31/17,0.0799999999999983,0.06887052341597649
PPG,117.5500,117.8300,115.9100,116.1600,1.24 M,10/30/17,-1.7700000000000102,-1.5008903586873654
PPG,118.5000,119.8500,117.2600,117.9300,2.03 M,10/27/17,-0.7399999999999949,-0.6235779893823165
PPG,118.5900,119.0700,118.0700,118.6700,1.02 M,10/26/17,0.9500000000000028,0.8069996602106718
PPG,117.2600,117.9200,116.7200,117.7200,1.46 M,10/25/17,0.28000000000000114,0.23841961852861132
PPG,117.6500,118.7200,117.2800,117.4400,1.42 M,10/24/17,0.5499999999999972,0.4705278466934701
PPG,117.6800,117.9100,116.7300,116.8900,1.98 M,10/23/17,-0.8700000000000045,-0.7387907608695691
PPG,114.9500,117.8000,114.7900,117.7600,2.27 M,10/20/17,3.450000000000003,3.0181086519114713
PPG,111.0000,115.3600,110.1000,114.3100,2.02 M,10/19/17,1.4300000000000068,1.2668320340184327
PPG,113.1500,113.3200,112.1000,112.8800,1.80 M,10/18/17,-0.0799999999999983,-0.07082152974504098
PPG,113.1200,113.5500,112.7600,112.9600,1.58 M,10/17/17,-0.21000000000000796,-0.18556154457895904
PPG,113.7700,113.9900,112.7000,113.1700,1.32 M,10/16/17,-0.3299999999999983,-0.2907488986784126
PPG,113.8800,113.9000,113.2000,113.5000,1.00 M,10/13/17,0.09999999999999432,0.08818342151674984
PPG,112.2500,113.8200,112.1700,113.4000,1.38 M,10/12/17,0.9900000000000091,0.8807045636509289
PPG,112.3800,112.5850,111.6900,112.4100,801757,10/11/17,0.030000000000001137,0.026695141484250878
PPG,112.6400,112.7350,111.9100,112.3800,1.19 M,10/10/17,-0.2600000000000051,-0.23082386363636817
PPG,113.0700,113.0700,111.7510,112.6400,1.53 M,10/09/17,-0.6400000000000006,-0.5649717514124298
PPG,112.8800,114.1500,112.6700,113.2800,1.20 M,10/06/17,0.25,0.22118021764133416
PPG,112.4700,113.1700,112.1700,113.0300,1.10 M,10/05/17,0.769999999999996,0.6859077142348085
PPG,112.0900,112.8900,111.9800,112.2600,1.45 M,10/04/17,0.27000000000001023,0.24109295472810988
PPG,111.6000,112.4200,110.9500,111.9900,1.30 M,10/03/17,0.9899999999999949,0.8918918918918873
PPG,108.6600,111.1600,108.4275,111.0000,1.33 M,10/02/17,2.3400000000000034,2.1535063500828304
PPG,108.7400,109.5600,108.4200,108.6600,1.75 M,09/29/17,-0.18999999999999773,-0.17455213596692487
PPG,107.9200,108.9300,107.7000,108.8500,1.59 M,09/28/17,0.8599999999999994,0.7963700342624312
PPG,108.6400,108.9300,107.8100,107.9900,1.51 M,09/27/17,-0.5200000000000102,-0.4792185052069028
PPG,109.3900,109.7400,108.1300,108.5100,2.13 M,09/26/17,-0.6499999999999915,-0.5954562110663169
PPG,108.2300,110.1600,108.0000,109.1600,1.91 M,09/25/17,0.3999999999999915,0.36778227289443866
PPG,108.9600,109.1800,108.4700,108.7600,1.12 M,09/22/17,-0.22999999999998977,-0.2110285347279473
PPG,108.6600,109.9000,108.6600,108.9900,1.02 M,09/21/17,0.1799999999999926,0.165425971877578
PPG,108.5200,109.2700,108.1801,108.8100,1.44 M,09/20/17,0.46999999999999886,0.4338194572641673
PPG,107.0000,108.3800,106.7700,108.3400,1.03 M,09/19/17,1.5400000000000063,1.4419475655430771
PPG,106.2000,106.9300,105.9700,106.8000,1.28 M,09/18/17,0.5,0.4703668861712136
PPG,106.2500,106.5800,105.9600,106.3000,1.86 M,09/15/17,-0.18000000000000682,-0.1690458302028614
PPG,105.2500,106.6200,104.6001,106.4800,1.35 M,09/14/17,1.4200000000000017,1.351608604606893
PPG,106.4200,106.5400,104.7500,105.0600,1.37 M,09/13/17,-1.6299999999999955,-1.5277907957634225
PPG,106.0800,106.7500,105.5500,106.6900,797466,09/12/17,0.789999999999992,0.7459867799811067
PPG,104.4800,106.1100,103.9400,105.9000,1.04 M,09/11/17,2.3100000000000023,2.2299449753837264
PPG,103.6300,103.9400,101.6100,103.5900,1.21 M,09/08/17,-0.4200000000000017,-0.40380732621863447
PPG,104.3700,104.3700,103.1000,104.0100,938689,09/07/17,-0.18999999999999773,-0.18234165067178285
PPG,103.9200,104.6400,103.1000,104.2000,1.59 M,09/06/17,0.7600000000000051,0.7347254447022478
PPG,104.4600,104.7000,103.3200,103.4400,1.01 M,09/05/17,-1.1500000000000057,-1.09953150396788
PPG,104.8000,104.9200,104.1000,104.5900,997596,09/01/17,0.27000000000001023,0.2588190184049178
PPG,104.2200,104.4700,103.8200,104.3200,1.71 M,08/31/17,0.5099999999999909,0.4912821500818716
PPG,103.6200,104.3000,103.4600,103.8100,1.30 M,08/30/17,-0.04999999999999716,-0.04814172925091196
PPG,103.4500,104.0400,103.0301,103.8600,866886,08/29/17,-0.29000000000000625,-0.2784445511281865
PPG,103.8800,104.3600,103.5700,104.1500,809406,08/28/17,0.4300000000000068,0.4145777092171296
PPG,103.9800,104.0900,103.2300,103.7200,863929,08/25/17,0.010000000000005116,0.009642271719221981
PPG,103.9100,104.5700,103.6000,103.7100,685316,08/24/17,0.0799999999999983,0.07719772266717968
PPG,104.0200,104.4200,103.5900,103.6300,891459,08/23/17,-0.9100000000000108,-0.8704801989669129
PPG,102.6600,104.7450,102.3700,104.5400,995787,08/22/17,2.1500000000000057,2.099814435003424
PPG,102.1000,102.5300,101.7200,102.3900,1.35 M,08/21/17,0.3100000000000023,0.3036833855799395
PPG,102.4300,102.8500,101.9500,102.0800,1.78 M,08/18/17,-0.6000000000000085,-0.5843396961433662
PPG,103.5600,103.9800,102.6800,102.6800,1.01 M,08/17/17,-1.059999999999988,-1.0217852323115366
PPG,103.1700,103.8800,102.7350,103.7400,1.32 M,08/16/17,0.7999999999999972,0.7771517388770129
PPG,102.6000,103.2100,102.2500,102.9400,1.33 M,08/15/17,0.37999999999999545,0.37051482059281926
PPG,101.7100,102.8000,101.2000,102.5600,1.30 M,08/14/17,1.8299999999999983,1.816737813958104
PPG,101.5600,101.5600,100.4500,100.7300,1.54 M,08/11/17,-0.5999999999999943,-0.5921247409454202
PPG,102.8000,103.1150,101.2200,101.3300,2.08 M,08/10/17,-2.0400000000000063,-1.9734932765792843
PPG,103.0400,103.8200,102.8000,103.3700,1.91 M,08/09/17,-0.030000000000001137,-0.029013539651838623
PPG,104.2600,104.4300,103.1900,103.4000,1.40 M,08/08/17,-1.7399999999999949,-1.6549362754422625
PPG,105.2000,105.9100,104.9500,105.1400,1.14 M,08/07/17,0.12999999999999545,0.12379773354918146
PPG,104.9400,105.2900,104.3100,105.0100,846636,08/04/17,0.3400000000000034,0.32483041941339774
PPG,106.4600,106.4600,103.8600,104.6700,2.12 M,08/03/17,-1.539999999999992,-1.4499576311081745
PPG,104.9200,106.8500,104.7700,106.2100,1.97 M,08/02/17,1.0999999999999943,1.0465226905146934
PPG,105.2800,105.6200,104.6300,105.1100,2.10 M,08/01/17,-0.14000000000000057,-0.13301662707838532
PPG,106.3200,106.4500,104.9900,105.2500,1.57 M,07/31/17,-0.7800000000000011,-0.7356408563614082
PPG,106.1500,106.5400,105.4450,106.0300,1.72 M,07/28/17,-0.12000000000000455,-0.11304757418747484
PPG,106.8300,107.1900,105.4850,106.1500,1.90 M,07/27/17,-0.5999999999999943,-0.562060889929737
PPG,107.1300,107.2200,106.6100,106.7500,1.05 M,07/26/17,-0.35999999999999943,-0.3361030716086261
PPG,106.2000,107.5200,105.8700,107.1100,1.82 M,07/25/17,1.7199999999999989,1.632033399753296
PPG,105.1900,105.8400,104.6900,105.3900,2.57 M,07/24/17,-0.980000000000004,-0.9213124001128175
PPG,106.2500,107.4000,106.2500,106.3700,2.68 M,07/21/17,-0.3499999999999943,-0.32796101949024953
PPG,109.5900,109.5900,105.8300,106.7200,4.71 M,07/20/17,-6.8799999999999955,-6.0563380281690105
PPG,113.1300,113.6650,112.6900,113.6000,1.10 M,07/19/17,0.6499999999999915,0.5754758742806476
PPG,112.8400,112.9900,112.1200,112.9500,826464,07/18/17,-0.009999999999990905,-0.008852691218122261
PPG,112.8000,113.4600,112.5176,112.9600,466433,07/17/17,0.1599999999999966,0.14184397163120266
PPG,112.6400,113.1400,112.3200,112.8000,658121,07/14/17,0.3999999999999915,0.35587188612098886
PPG,111.7900,112.6300,111.7300,112.4000,906435,07/13/17,0.5600000000000023,0.5007153075822623
PPG,111.6700,112.1800,111.2600,111.8400,1.42 M,07/12/17,0.8700000000000045,0.7839956745066275
PPG,111.1000,111.2800,110.5501,110.9700,750285,07/11/17,-0.010000000000005116,-0.009010632546409367
PPG,110.7300,111.4000,110.7300,110.9800,1.07 M,07/10/17,-0.01999999999999602,-0.018018018018014434
PPG,110.3500,111.1300,109.9450,111.0000,721029,07/07/17,0.9500000000000028,0.8632439800090894
PPG,110.4400,110.6200,109.8150,110.0500,864919,07/06/17,-0.6300000000000097,-0.5692085290928891
PPG,111.2200,111.6000,110.2200,110.6800,630808,07/05/17,0.07000000000000739,0.06328541723172172
PPG,110.6100,111.1000,110.2100,110.6100,381538,07/03/17,0.6500000000000057,0.591124045107317
PPG,110.1800,110.5300,109.6600,109.9600,786673,06/30/17,0.30999999999998806,0.28271773825808305
PPG,111.0600,111.3000,109.2700,109.6500,835940,06/29/17,-1.4199999999999875,-1.2784730350229474
PPG,111.0000,111.3000,110.8900,111.0700,1.97 M,06/28/17,0.5799999999999983,0.5249343832020982
PPG,110.4900,111.2225,110.4900,110.4900,956538,06/27/17,-0.3299999999999983,-0.2977801840822941
PPG,110.5500,111.0600,110.3200,110.8200,734646,06/26/17,0.13999999999998636,0.12649078424284999
PPG,110.5000,111.0250,110.3300,110.6800,1.44 M,06/23/17,0.11000000000001364,0.0994844894637005
PPG,110.7700,110.9300,110.4000,110.5700,1.18 M,06/22/17,-0.11000000000001364,-0.0993856161908327
PPG,111.0000,111.2100,110.4700,110.6800,1.37 M,06/21/17,-0.09999999999999432,-0.09026900162483689
PPG,110.8800,111.2350,110.6100,110.7800,884301,06/20/17,-0.3299999999999983,-0.2970029700296988
PPG,111.5100,111.5700,110.9700,111.1100,1.24 M,06/19/17,-0.04999999999999716,-0.04498020870816585
PPG,111.2000,111.7400,110.8400,111.1600,2.19 M,06/16/17,-0.1599999999999966,-0.14372978799855965
PPG,110.4700,111.6200,110.4700,111.3200,978970,06/15/17,-0.18000000000000682,-0.16143497757848146
PPG,111.6800,111.7100,111.0300,111.5000,892790,06/14/17,-0.06999999999999318,-0.06274088016491278
PPG,110.0600,111.5800,109.8480,111.5700,1.36 M,06/13/17,1.4299999999999926,1.2983475576538883
PPG,110.0000,110.8400,109.6900,110.1400,2.20 M,06/12/17,0.20999999999999375,0.19103065587191279
PPG,108.0700,109.9300,108.0700,109.9300,1.62 M,06/09/17,2.010000000000005,1.8624907338769505
PPG,107.3500,108.0000,106.6400,107.9200,1.29 M,06/08/17,0.07000000000000739,0.06490496059342364
PPG,108.5700,108.7500,107.5300,107.8500,1.92 M,06/07/17,-0.5300000000000011,-0.48902011441225424
PPG,107.8600,108.5600,107.6500,108.3800,1.26 M,06/06/17,0.01999999999999602,0.018456995201177575
PPG,110.0000,110.3750,108.3100,108.3600,1.07 M,06/05/17,-2.0600000000000023,-1.86560405723601
PPG,109.1400,110.6500,108.6900,110.4200,1.31 M,06/02/17,1.2600000000000051,1.154268962990111
PPG,106.4900,110.4700,106.3900,109.1600,2.20 M,06/01/17,2.799999999999997,2.6325686348251196
PPG,106.6700,106.6700,105.6900,106.3600,1.70 M,05/31/17,-0.12000000000000455,-0.11269722013524093
PPG,107.0000,107.0000,105.8800,106.4800,975121,05/30/17,-0.7599999999999909,-0.7086907870197603
PPG,106.7200,107.6700,106.4800,107.2400,664697,05/26/17,0.3299999999999983,0.3086708446356733
PPG,107.1700,107.5100,106.5700,106.9100,1.34 M,05/25/17,-0.030000000000001137,-0.02805311389564348
PPG,106.8000,107.4400,106.1800,106.9400,524768,05/24/17,0.23999999999999488,0.22492970946578714
PPG,106.4800,107.0650,106.0900,106.7000,794345,05/23/17,0.28000000000000114,0.26310843826348534
PPG,106.9500,107.1816,106.1500,106.4200,959387,05/22/17,-0.3100000000000023,-0.2904525438021196
PPG,105.1100,107.1300,105.1100,106.7300,1.08 M,05/19/17,1.3400000000000034,1.2714678812031535
PPG,105.6200,106.1100,104.9000,105.3900,1.33 M,05/18/17,-0.09000000000000341,-0.08532423208191449
PPG,106.7100,107.0800,105.4000,105.4800,1.29 M,05/17/17,-1.9299999999999926,-1.7968531794060074
PPG,107.9200,108.0700,107.2500,107.4100,600377,05/16/17,-0.5700000000000074,-0.5278755325060265
PPG,107.1600,108.4200,107.1550,107.9800,730610,05/15/17,0.8599999999999994,0.8028379387602683
PPG,107.2900,107.4700,106.8200,107.1200,500457,05/12/17,-0.3399999999999892,-0.3163967988088491
PPG,107.3100,107.7600,106.2700,107.4600,1.13 M,05/11/17,-0.39000000000000057,-0.36161335187760835
PPG,107.9400,108.5400,107.6000,107.8500,1.04 M,05/10/17,0.0,0.0
PPG,108.4700,108.7200,107.5300,107.8500,1.26 M,05/09/17,-0.5800000000000125,-0.5349073134741422
PPG,109.7500,109.9500,108.1600,108.4300,1.31 M,05/08/17,-2.1299999999999955,-1.9265557163531073
PPG,110.0000,111.3400,109.8300,110.5600,1.21 M,05/05/17,0.6700000000000017,0.6097006097006112
PPG,109.3300,110.2900,109.2200,109.8900,1.10 M,05/04/17,0.6899999999999977,0.6318681318681297
PPG,109.3200,109.6740,109.0400,109.2000,927419,05/03/17,-0.269999999999996,-0.2466429158673573
PPG,109.6900,113.0000,109.0900,109.4700,1.11 M,05/02/17,0.010000000000005116,0.009135757354289344
PPG,109.6700,109.9500,109.1100,109.4600,706473,05/01/17,-0.38000000000000966,-0.3459577567370809
PPG,111.0500,111.0500,109.8100,109.8400,1.05 M,04/28/17,-1.4500000000000028,-1.302902327253125
PPG,110.5800,111.9870,110.3000,111.2900,1.72 M,04/27/17,0.8100000000000023,0.7331643736422903
PPG,110.8900,110.8900,109.6100,110.4800,1.33 M,04/26/17,-0.3399999999999892,-0.3068038260241736
PPG,108.1800,111.0600,108.1800,110.8200,2.34 M,04/25/17,2.809999999999988,2.601610961947957
PPG,108.0300,108.2200,106.9000,108.0100,2.10 M,04/24/17,2.0700000000000074,1.9539361902964012
PPG,106.6600,107.1600,105.9400,105.9400,2.04 M,04/21/17,-0.4300000000000068,-0.40424931841685324
PPG,105.6300,106.6100,104.3600,106.3700,2.23 M,04/20/17,1.3700000000000045,1.304761904761909
PPG,104.9700,105.8000,104.6700,105.0000,1.18 M,04/19/17,0.2600000000000051,0.24823372159633866
PPG,104.8700,105.3800,104.3200,104.7400,1.15 M,04/18/17,-0.6500000000000057,-0.6167568080463096
PPG,104.8200,105.4600,104.3150,105.3900,859765,04/17/17,0.9699999999999989,0.9289408159356434
PPG,105.0000,105.3100,104.2700,104.4200,857460,04/13/17,-0.6400000000000006,-0.6091757091185994
PPG,105.5000,105.5000,104.5210,105.0600,1.17 M,04/12/17,-1.0,-0.9428625306430323
PPG,105.4900,106.1100,104.8700,106.0600,1.15 M,04/11/17,0.269999999999996,0.25522261083277814
PPG,105.8900,106.4100,105.2600,105.7900,1.03 M,04/10/17,-0.2599999999999909,-0.2451673738802366
PPG,105.1500,106.2000,105.1500,106.0500,1.12 M,04/07/17,0.7800000000000011,0.7409518381305227
PPG,105.1800,105.8600,104.9900,105.2700,1.25 M,04/06/17,0.269999999999996,0.25714285714285334
PPG,105.0000,106.6700,104.5500,105.0000,1.66 M,04/05/17,0.23000000000000398,0.21952849098024624
PPG,105.0800,105.2900,104.5300,104.7700,1.21 M,04/04/17,-0.3100000000000023,-0.2950133231823394
PPG,105.5000,105.6200,104.1800,105.0800,1.32 M,04/03/17,0.0,0.0
PPG,104.9400,105.5200,103.9385,105.0800,1.24 M,03/31/17,-0.15000000000000568,-0.14254490164402325
PPG,105.4500,105.9600,105.1600,105.2300,1.41 M,03/30/17,-0.539999999999992,-0.5105417415145996
PPG,104.8900,105.9500,104.5450,105.7700,1.14 M,03/29/17,0.7999999999999972,0.7621225111936717
PPG,103.8500,105.3000,103.5700,104.9700,1.08 M,03/28/17,1.1500000000000057,1.107686380273556
PPG,102.7600,104.0100,102.2000,103.8200,1.59 M,03/27/17,0.029999999999986926,0.028904518739750383
PPG,104.5000,104.8700,103.5600,103.7900,1.28 M,03/24/17,-0.8299999999999983,-0.7933473523226899
PPG,103.9300,105.4600,103.5000,104.6200,1.84 M,03/23/17,0.37000000000000455,0.3549160671462873
PPG,104.4000,104.4000,102.6400,104.2500,2.04 M,03/22/17,-0.23000000000000398,-0.22013782542113702
PPG,105.3900,106.2400,104.4300,104.4800,2.06 M,03/21/17,-1.0899999999999892,-1.032490290802301
PPG,104.2300,105.7200,102.3600,105.5700,2.57 M,03/20/17,1.0799999999999983,1.0335917312661482
PPG,104.3900,105.0000,103.3800,104.4900,2.97 M,03/17/17,0.8699999999999903,0.8396062536189831
PPG,104.6500,104.6500,103.0200,103.6200,1.19 M,03/16/17,-0.4200000000000017,-0.40369088811995546
PPG,102.8900,104.4100,102.1900,104.0400,1.79 M,03/15/17,2.3100000000000023,2.270716602772046
PPG,102.4700,102.4700,101.4501,101.7300,1.21 M,03/14/17,-0.9500000000000028,-0.9252045188936528
PPG,102.2600,102.7300,101.5910,102.6800,1.44 M,03/13/17,0.5900000000000034,0.5779214418650244
PPG,103.9400,104.5200,101.9400,102.0900,3.04 M,03/10/17,-0.8400000000000034,-0.8160886039055701
PPG,106.0000,106.0000,101.4201,102.9300,5.75 M,03/09/17,-3.8999999999999915,-3.6506599269867936
PPG,100.6400,113.4900,100.3400,106.8300,12.61 M,03/08/17,6.049999999999997,6.003175233181184
PPG,101.1400,101.2450,100.6700,100.7800,1.21 M,03/07/17,-0.4200000000000017,-0.41501976284585146
PPG,101.9500,101.9600,100.9600,101.2000,928048,03/06/17,-0.8599999999999994,-0.8426415833823235
PPG,102.4300,103.1700,101.6800,102.0600,1.08 M,03/03/17,-0.3199999999999932,-0.31256104707950105
PPG,103.3000,103.3000,102.3000,102.3800,1.40 M,03/02/17,-0.9100000000000108,-0.8810146190337987
PPG,103.4500,103.8200,103.0500,103.2900,1.68 M,03/01/17,0.8599999999999994,0.8395977740896216
PPG,102.3200,102.7600,101.9600,102.4300,1.28 M,02/28/17,-0.01999999999999602,-0.0195217179111723
PPG,103.0800,103.4000,102.2600,102.4500,1.15 M,02/27/17,-0.8599999999999994,-0.8324460362017224
PPG,102.1300,103.3650,101.9300,103.3100,1.35 M,02/24/17,0.710000000000008,0.692007797270963
PPG,103.2300,103.2300,102.1900,102.6000,1.52 M,02/23/17,-0.21000000000000796,-0.2042602859644081
PPG,102.4000,103.3400,102.3200,102.8100,1.95 M,02/22/17,-0.18999999999999773,-0.1844660194174735
PPG,102.5000,103.1300,102.3500,103.0000,2.26 M,02/21/17,0.6299999999999955,0.6154146722672613
PPG,101.7100,102.3700,100.7400,102.3700,1.31 M,02/17/17,0.6000000000000085,0.5895647047263521
PPG,101.8000,101.9900,100.9900,101.7700,878930,02/16/17,0.269999999999996,0.26600985221674484
PPG,101.0000,101.6700,100.9110,101.5000,877537,02/15/17,-0.06999999999999318,-0.06891798759475552
PPG,100.9100,101.7500,100.4700,101.5700,1.53 M,02/14/17,0.7599999999999909,0.7538934629500951
PPG,100.9400,101.2500,100.6400,100.8100,981485,02/13/17,0.269999999999996,0.26854983091306545
PPG,100.2000,100.9500,100.0200,100.5400,1.30 M,02/10/17,0.4100000000000108,0.4094676920004103
PPG,100.1900,100.4805,99.7900,100.1300,726365,02/09/17,0.030000000000001137,0.029970029970031106
PPG,100.0800,100.2700,99.5700,100.1000,1.03 M,02/08/17,0.0899999999999892,0.0899910008998992
PPG,100.0400,100.8200,99.7700,100.0100,1.08 M,02/07/17,0.09000000000000341,0.09007205764612031
PPG,100.3200,100.9900,99.5500,99.9200,1.61 M,02/06/17,-1.019999999999996,-1.0105012878937945
PPG,101.1100,101.1500,100.4200,100.9400,921564,02/03/17,0.35999999999999943,0.35792404056472404
PPG,100.5100,101.0800,100.0416,100.5800,1.97 M,02/02/17,0.01999999999999602,0.0198886237072355
PPG,99.6500,100.7600,99.0000,100.5600,1.64 M,02/01/17,0.5499999999999972,0.5499450054994471
PPG,101.7200,101.8600,99.2900,100.0100,2.57 M,01/31/17,-2.019999999999996,-1.9798098598451397
PPG,102.1500,102.1500,100.4400,102.0300,2.00 M,01/30/17,0.010000000000005116,0.00980199960792503
PPG,101.6900,102.1219,101.2200,102.0200,1.33 M,01/27/17,0.1700000000000017,0.16691212567501396
PPG,101.6400,102.0000,100.7600,101.8500,1.59 M,01/26/17,0.769999999999996,0.7617728531855916
PPG,102.2000,102.2800,100.8800,101.0800,2.11 M,01/25/17,-0.7199999999999989,-0.7072691552062857
PPG,100.7400,102.5500,100.4400,101.8000,2.26 M,01/24/17,1.5600000000000023,1.5562649640861954
PPG,98.7400,100.3100,98.7010,100.2400,2.34 M,01/23/17,1.2399999999999949,1.2525252525252473
PPG,98.0300,99.8200,97.8700,99.0000,2.81 M,01/20/17,1.5,1.5384615384615385
PPG,97.8400,98.9800,96.0000,97.5000,3.38 M,01/19/17,0.8100000000000023,0.8377288240769493
PPG,95.9700,96.8500,95.6600,96.6900,2.14 M,01/18/17,0.7199999999999989,0.7502344482650817
PPG,95.7900,96.0800,94.6200,95.9700,2.25 M,01/17/17,-0.3499999999999943,-0.36337209302324996
PPG,96.8300,97.1000,96.1700,96.3200,1.24 M,01/13/17,-0.5500000000000114,-0.5677712398059371
PPG,96.4500,96.9750,95.8000,96.8700,1.03 M,01/12/17,0.2400000000000091,0.24837007140640496
PPG,96.2500,96.6700,95.5800,96.6300,1.17 M,01/11/17,0.23999999999999488,0.24898848428259662
PPG,96.0700,96.6500,95.6650,96.3900,1.42 M,01/10/17,0.04000000000000625,0.04151530877011547
PPG,95.0500,96.4600,94.7700,96.3500,1.45 M,01/09/17,0.7599999999999909,0.795062245004698
PPG,95.7700,96.1400,95.2900,95.5900,1.38 M,01/06/17,-0.030000000000001137,-0.031374189500105766
PPG,96.4600,96.6200,95.4000,95.6200,1.66 M,01/05/17,-1.6499999999999915,-1.6963092423151964
PPG,95.7100,97.5200,95.6300,97.2700,1.33 M,01/04/17,2.019999999999996,2.1207349081364786
PPG,95.4300,95.9700,94.5700,95.2500,1.36 M,01/03/17,0.4899999999999949,0.5170958210215226
PPG,95.4300,95.5000,94.4600,94.7600,1.25 M,12/30/16,-0.5499999999999972,-0.577064316441084
PPG,94.7000,95.3200,94.6700,95.3100,1.15 M,12/29/16,0.6400000000000006,0.6760325340657025
PPG,96.3400,96.4700,94.5900,94.6700,1.16 M,12/28/16,-1.1799999999999926,-1.2310902451747445
PPG,95.0500,95.9300,94.8800,95.8500,1.20 M,12/27/16,1.1599999999999966,1.2250501636920441
PPG,95.0400,95.0400,93.8001,94.6900,1.82 M,12/23/16,-0.3100000000000023,-0.3263157894736866
PPG,95.9400,95.9900,94.9300,95.0000,1.18 M,12/22/16,-0.8700000000000045,-0.9074788776468181
PPG,95.3900,96.2000,95.0500,95.8700,1.19 M,12/21/16,0.23000000000000398,0.2404851526557967
PPG,96.2600,96.4000,95.5600,95.6400,1.42 M,12/20/16,-0.5799999999999983,-0.6027852837247956
PPG,96.0600,96.8700,95.9700,96.2200,1.47 M,12/19/16,0.29999999999999716,0.31276063386154834
PPG,96.0700,96.7000,95.7800,95.9200,2.05 M,12/16/16,-0.1799999999999926,-0.18730489073880605
PPG,96.2000,97.1200,95.6300,96.1000,1.68 M,12/15/16,-0.07000000000000739,-0.07278777165436975
PPG,97.0700,97.8800,95.9100,96.1700,1.58 M,12/14/16,-0.8799999999999955,-0.9067490984028804
PPG,98.1300,98.3900,96.6500,97.0500,2.15 M,12/13/16,-1.6000000000000085,-1.6218955904713719
PPG,99.0700,99.8500,97.7600,98.6500,1.53 M,12/12/16,-0.6499999999999915,-0.654582074521643
PPG,99.4800,100.1700,98.9200,99.3000,1.36 M,12/09/16,-0.10999999999999943,-0.11065285182577149
PPG,98.1800,99.6700,97.8800,99.4100,1.49 M,12/08/16,1.2299999999999898,1.2528009777958746
PPG,96.3100,98.2100,96.2100,98.1800,1.58 M,12/07/16,1.960000000000008,2.0369985450010475
PPG,95.9800,96.3630,95.5200,96.2200,1.36 M,12/06/16,0.23000000000000398,0.23960829253047608
PPG,95.3600,96.9900,95.2300,95.9900,1.63 M,12/05/16,1.4099999999999966,1.4908014379361352
PPG,95.2900,95.5000,94.1500,94.5800,2.09 M,12/02/16,-0.6599999999999966,-0.692986140277191
PPG,96.4200,96.8000,94.8500,95.2400,2.44 M,12/01/16,-0.6900000000000119,-0.7192744709684269
PPG,98.4600,98.6900,95.8300,95.9300,2.70 M,11/30/16,-2.069999999999993,-2.112244897959177
PPG,97.3500,98.4500,96.9200,98.0000,1.47 M,11/29/16,0.6500000000000057,0.667693888032877
PPG,97.9200,97.9500,96.7700,97.3500,1.25 M,11/28/16,-0.7800000000000011,-0.7948639559767667
PPG,97.6300,98.1300,97.3500,98.1300,482559,11/25/16,0.539999999999992,0.5533353827236316
PPG,96.5900,97.6900,96.3600,97.5900,1.29 M,11/23/16,0.9699999999999989,1.0039329331401354
PPG,96.4500,96.7100,96.0300,96.6200,1.51 M,11/22/16,0.4300000000000068,0.44703191599959125
PPG,95.5600,96.3300,95.3100,96.1900,1.81 M,11/21/16,1.0,1.0505305179115454
PPG,96.2300,96.2300,95.1200,95.1900,1.28 M,11/18/16,-1.4200000000000017,-1.469827140047616
PPG,96.7700,96.8300,96.0950,96.6100,1.12 M,11/17/16,0.25,0.2594437525944375
PPG,95.9600,96.5699,95.8600,96.3600,1.64 M,11/16/16,0.12999999999999545,0.1350930063389748
PPG,96.1000,96.5400,95.5100,96.2300,1.78 M,11/15/16,0.18000000000000682,0.18740239458616015
PPG,96.4000,96.8500,95.1300,96.0500,2.00 M,11/14/16,0.28000000000000114,0.2923671295812897
PPG,96.3200,97.2700,95.4900,95.7700,2.01 M,11/11/16,-1.1000000000000085,-1.1355424796118596
PPG,95.9100,98.2100,95.7800,96.8700,2.83 M,11/10/16,1.5799999999999983,1.6580963374960627
PPG,92.3600,95.9700,90.8790,95.2900,3.23 M,11/09/16,0.5500000000000114,0.580536204348756
PPG,93.8300,95.1900,93.5000,94.7400,1.69 M,11/08/16,0.39000000000000057,0.4133545310015905
PPG,94.1600,94.4200,93.5700,94.3500,2.07 M,11/07/16,1.539999999999992,1.6593039543152592
PPG,92.0200,93.6600,91.5400,92.8100,1.53 M,11/04/16,1.0600000000000023,1.15531335149864
PPG,92.7600,93.1400,91.6600,91.7500,1.65 M,11/03/16,-0.6299999999999955,-0.6819657934617834
PPG,92.8500,93.9900,92.3700,92.3800,2.23 M,11/02/16,-0.35999999999999943,-0.3881820142333399
PPG,93.2500,93.5900,91.7500,92.7400,2.22 M,11/01/16,-0.39000000000000057,-0.4187694620423071
PPG,93.3500,93.4400,92.8100,93.1300,2.17 M,10/31/16,0.2599999999999909,0.2799612361365251
PPG,93.4400,94.5300,92.2700,92.8700,2.06 M,10/28/16,-0.47999999999998977,-0.5141938939474985
PPG,93.0300,93.6300,92.7400,93.3500,2.29 M,10/27/16,0.8299999999999983,0.8971033290099419
PPG,91.0100,92.6200,91.0100,92.5200,2.52 M,10/26/16,1.2999999999999972,1.4251260688445486
PPG,90.5500,92.0600,89.6400,91.2200,4.34 M,10/25/16,-2.019999999999996,-2.1664521664521623
PPG,92.7500,93.5100,92.7000,93.2400,2.01 M,10/24/16,0.8599999999999994,0.9309374323446628
PPG,91.4200,92.5900,90.4800,92.3800,2.37 M,10/21/16,-0.28000000000000114,-0.30218001295057323
PPG,92.6900,94.4700,92.5100,92.6600,2.41 M,10/20/16,0.09999999999999432,0.10803802938633784
PPG,92.8200,93.1800,92.1600,92.5600,2.17 M,10/19/16,-0.25,-0.26936752505117983
PPG,93.7500,93.8300,92.7900,92.8100,1.32 M,10/18/16,0.15000000000000568,0.1618821497949554
PPG,92.6000,92.8800,92.2400,92.6600,1.92 M,10/17/16,0.060000000000002274,0.06479481641468929
PPG,92.7500,93.1100,92.5500,92.6000,2.45 M,10/14/16,0.47999999999998977,0.521059487624826
PPG,91.0100,92.3600,90.3100,92.1200,2.60 M,10/13/16,0.18000000000000682,0.19577985642811271
PPG,92.3900,92.5550,91.4300,91.9400,2.17 M,10/12/16,-0.35999999999999943,-0.39003250270855844
PPG,93.2500,93.2500,91.5100,92.3000,4.16 M,10/11/16,-1.5499999999999972,-1.6515716568993044
PPG,94.3100,94.9900,93.2200,93.8500,3.25 M,10/10/16,0.11999999999999034,0.12802731249332158
PPG,97.1900,97.5000,92.5100,93.7300,7.14 M,10/07/16,-8.459999999999994,-8.278696545650252
PPG,101.4000,102.3600,101.2200,102.1900,1.08 M,10/06/16,0.6099999999999994,0.6005119117936596
PPG,102.3000,102.7300,101.5500,101.5800,912363,10/05/16,-0.46999999999999886,-0.4605585497305231
PPG,103.8000,104.0800,101.8000,102.0500,1.56 M,10/04/16,-1.3900000000000006,-1.3437741686001552
PPG,103.2700,104.0400,103.2700,103.4400,1.35 M,10/03/16,0.0799999999999983,0.07739938080495191
PPG,102.6500,103.8500,102.6500,103.3600,1.72 M,09/30/16,1.2999999999999972,1.2737605330197894
PPG,103.6500,103.9600,101.9750,102.0600,1.16 M,09/29/16,-1.509999999999991,-1.4579511441537039
PPG,102.9200,103.9500,102.3700,103.5700,1.30 M,09/28/16,1.1199999999999903,1.0932162030258568
PPG,102.0000,102.6300,101.5450,102.4500,1.29 M,09/27/16,0.3100000000000023,0.3035049931466637
PPG,103.0700,103.2900,102.0100,102.1400,928392,09/26/16,-1.1299999999999955,-1.0942190374745768
PPG,103.1100,103.7599,102.7800,103.2700,1.65 M,09/23/16,0.12999999999999545,0.12604227263912687
PPG,103.5100,104.2200,102.9200,103.1400,1.15 M,09/22/16,0.6800000000000068,0.6636736287331708
PPG,101.8000,102.5400,101.2600,102.4600,1.14 M,09/21/16,1.1999999999999886,1.1850681414181203
PPG,100.4100,101.9500,100.4100,101.2600,1.32 M,09/20/16,0.18000000000000682,0.17807677087456156
PPG,100.9300,101.5500,100.5300,101.0800,1.27 M,09/19/16,0.8700000000000045,0.8681768286598189
PPG,100.6300,100.8200,99.7800,100.2100,1.99 M,09/16/16,-1.0300000000000011,-1.017384433030424
PPG,100.6900,101.5963,100.3800,101.2400,1.20 M,09/15/16,0.5599999999999881,0.5562177195073381
PPG,101.0700,101.3800,99.9640,100.6800,1.10 M,09/14/16,-0.47999999999998977,-0.4744958481613185
PPG,101.7100,101.9500,100.5800,101.1600,1.43 M,09/13/16,-1.6000000000000085,-1.5570260801868514
PPG,100.4800,102.9800,100.4200,102.7600,1.60 M,09/12/16,1.9000000000000057,1.8837993257981416
PPG,104.5800,104.5800,100.7600,100.8600,2.34 M,09/09/16,-4.439999999999998,-4.216524216524214
PPG,106.5400,106.8800,105.2800,105.3000,1.04 M,09/08/16,-1.4300000000000068,-1.3398294762484837
PPG,107.2400,107.7900,106.4200,106.7300,1.34 M,09/07/16,-0.8900000000000006,-0.8269838320014872
PPG,107.3700,107.9700,107.0100,107.6200,1.32 M,09/06/16,0.5799999999999983,0.5418535127055291
PPG,106.7400,107.0700,106.3200,107.0400,662667,09/02/16,1.0600000000000023,1.000188714851861
PPG,106.0200,106.3000,105.0900,105.9800,929606,09/01/16,0.10000000000000853,0.09444654325652486
PPG,107.0800,107.0800,105.4300,105.8800,1.39 M,08/31/16,-1.4000000000000057,-1.3049962714392298
PPG,107.3500,107.6988,106.6700,107.2800,1.04 M,08/30/16,-0.3199999999999932,-0.2973977695167223
PPG,105.9100,107.8900,105.9100,107.6000,1.30 M,08/29/16,1.8499999999999943,1.7494089834515312
PPG,106.9700,107.6499,105.4100,105.7500,929702,08/26/16,-1.0,-0.936768149882904
PPG,106.1000,107.1900,106.0500,106.7500,914054,08/25/16,0.35999999999999943,0.3383776670739726
PPG,106.2800,107.1200,106.0000,106.3900,1.81 M,08/24/16,-0.04999999999999716,-0.046974821495675646
PPG,105.8700,106.7700,105.6000,106.4400,1.34 M,08/23/16,1.230000000000004,1.1690903906472807
PPG,104.4300,105.2825,104.0000,105.2100,1.15 M,08/22/16,0.47999999999998977,0.4583213978802537
PPG,103.2200,104.8600,103.2200,104.7300,1.09 M,08/19/16,0.960000000000008,0.9251228678808981
PPG,103.5900,103.9600,103.3600,103.7700,1.04 M,08/18/16,0.1799999999999926,0.17376194613378956
PPG,103.6600,104.0300,102.9000,103.5900,1.24 M,08/17/16,-0.060000000000002274,-0.05788712011577643
PPG,104.5100,105.3550,103.6500,103.6500,1.29 M,08/16/16,-0.8099999999999881,-0.7754164273405975
PPG,104.1300,104.7500,104.0200,104.4600,1.04 M,08/15/16,0.46999999999999886,0.4519665352437724
PPG,104.6100,104.8700,103.7100,103.9900,977582,08/12/16,-0.75,-0.7160588122971167
PPG,104.8200,105.3800,104.4300,104.7400,1.10 M,08/11/16,0.04999999999999716,0.0477600534912572
PPG,104.6900,105.0700,104.0900,104.6900,1.10 M,08/10/16,0.3199999999999932,0.3066015138449681
PPG,104.3500,105.2000,104.1900,104.3700,1.04 M,08/09/16,-0.10999999999999943,-0.10528330781010665
PPG,104.4500,104.7000,104.0500,104.4800,1.21 M,08/08/16,0.04999999999999716,0.04787896198410146
PPG,104.6100,104.9850,104.3500,104.4300,1.06 M,08/05/16,0.3300000000000125,0.31700288184439246
PPG,104.3000,104.8200,103.8500,104.1000,1.28 M,08/04/16,-0.23000000000000398,-0.22045432761430458
PPG,104.1300,104.3800,102.8700,104.3300,2.42 M,08/03/16,0.6400000000000006,0.6172244189410749
PPG,104.8800,104.8800,103.3500,103.6900,1.47 M,08/02/16,-0.980000000000004,-0.9362759147797879
PPG,104.1000,105.0600,103.7400,104.6700,1.64 M,08/01/16,-0.03999999999999204,-0.038200744914518234
PPG,104.9900,105.2295,103.7401,104.7100,2.11 M,07/29/16,-0.7700000000000102,-0.7299962078119171
PPG,105.7200,106.3200,104.8211,105.4800,2.16 M,07/28/16,-0.6099999999999994,-0.5749835045715896
PPG,106.8700,106.8700,105.7600,106.0900,1.63 M,07/27/16,-0.6700000000000017,-0.6275758711127779
PPG,107.0700,107.0700,106.1789,106.7600,2.29 M,07/26/16,0.1700000000000017,0.1594896331738453
PPG,107.2300,107.3450,106.4000,106.5900,1.67 M,07/25/16,-1.0600000000000023,-0.9846725499303318
PPG,108.5900,108.5900,107.3050,107.6500,1.71 M,07/22/16,-0.9399999999999977,-0.8656414034441456
PPG,109.0000,110.1300,107.5600,108.5900,2.14 M,07/21/16,-1.4399999999999977,-1.3087339816413686
PPG,108.7900,110.1400,108.4800,110.0300,2.36 M,07/20/16,1.6500000000000057,1.5224211109060766
PPG,108.6400,108.9800,107.7700,108.3800,1.42 M,07/19/16,-0.9200000000000017,-0.841720036596525
PPG,109.0000,109.5000,108.6100,109.3000,870149,07/18/16,0.030000000000001137,0.02745492815960569
PPG,109.0200,109.4800,108.1400,109.2700,1.34 M,07/15/16,0.6400000000000006,0.5891558501334812
PPG,109.8100,109.9900,108.3500,108.6300,1.36 M,07/14/16,-0.8400000000000034,-0.7673335160317927
PPG,109.1000,109.5500,107.9600,109.4700,1.24 M,07/13/16,0.769999999999996,0.708371665133391
PPG,107.5500,109.5000,107.3100,108.7000,1.40 M,07/12/16,2.0900000000000034,1.960416471250355
PPG,106.6300,107.0400,106.4200,106.6100,892797,07/11/16,0.29000000000000625,0.2727614747930834
PPG,104.1800,106.6099,103.9800,106.3200,1.65 M,07/08/16,3.289999999999992,3.1932446860137746
PPG,103.2800,103.7800,102.5250,103.0300,1.55 M,07/07/16,0.060000000000002274,0.05826939885403736
PPG,102.2000,103.0200,101.7150,102.9700,1.45 M,07/06/16,0.3199999999999932,0.31173891865561926
PPG,103.9200,103.9300,101.8000,102.6500,1.90 M,07/05/16,-1.8699999999999903,-1.7891312667431978
PPG,104.3200,105.4900,104.0700,104.5200,1.33 M,07/01/16,0.36999999999999034,0.35525684109456585
PPG,102.5700,104.1500,101.9900,104.1500,2.19 M,06/30/16,1.6600000000000108,1.619670211727984
PPG,101.9400,102.7200,101.5700,102.4900,1.58 M,06/29/16,1.9299999999999926,1.9192521877486004
PPG,99.9500,100.5600,98.4200,100.5600,1.94 M,06/28/16,1.8700000000000045,1.8948221704326726
PPG,101.4100,101.4700,98.0800,98.6900,3.45 M,06/27/16,-4.040000000000006,-3.932638956487887
PPG,108.0900,108.0900,102.2100,102.7300,3.82 M,06/24/16,-8.489999999999995,-7.633519151231789
PPG,109.7000,111.2600,109.4400,111.2200,2.08 M,06/23/16,3.4099999999999966,3.1629718950004606
PPG,108.4000,108.4000,107.6600,107.8100,1.22 M,06/22/16,-0.25,-0.23135295206366832
PPG,108.6500,108.6500,107.8300,108.0600,1.35 M,06/21/16,-0.35999999999999943,-0.33204205866076314
PPG,109.2800,109.7300,108.3200,108.4200,1.23 M,06/20/16,0.23999999999999488,0.22185246810870296
PPG,107.0000,108.2600,106.6300,108.1800,1.81 M,06/17/16,1.220000000000013,1.1406133133881948
PPG,105.6200,107.0100,105.0600,106.9600,843422,06/16/16,0.3399999999999892,0.31888951416243594
PPG,107.3000,107.6400,106.5000,106.6200,1.06 M,06/15/16,-0.45999999999999375,-0.4295853567426165
PPG,107.3100,107.8500,106.4300,107.0800,1.22 M,06/14/16,-0.6099999999999994,-0.5664407094437732
PPG,108.9400,109.2500,107.6100,107.6900,1.34 M,06/13/16,-1.5499999999999972,-1.4188941779567898
PPG,109.7700,109.8600,108.7700,109.2400,1.26 M,06/10/16,-1.190000000000012,-1.0776057230825065
PPG,110.2100,110.4900,109.5200,110.4300,2.69 M,06/09/16,-0.519999999999996,-0.4686795853988247
PPG,108.0600,111.2600,107.5100,110.9500,1.91 M,06/08/16,3.180000000000007,2.950728403080641
PPG,108.1500,108.3599,107.3700,107.7700,1.24 M,06/07/16,-0.3500000000000085,-0.323714391416952
PPG,108.1000,108.8700,107.6800,108.1200,935929,06/06/16,0.45000000000000284,0.4179437169127917
PPG,108.0700,108.1700,106.8600,107.6700,1.34 M,06/03/16,-0.5300000000000011,-0.48983364140480695
PPG,107.3600,108.2000,106.8900,108.2000,759921,06/02/16,0.21999999999999886,0.20374143359881353
PPG,107.3100,108.2100,106.4900,107.9800,998448,06/01/16,0.29999999999999716,0.27860326894501963
PPG,108.6500,108.8700,107.2000,107.6800,1.81 M,05/31/16,-0.9199999999999875,-0.8471454880294544
PPG,107.9600,108.7100,107.3000,108.6000,732422,05/27/16,0.8999999999999915,0.8356545961002706
PPG,108.3500,109.0000,107.5900,107.7000,685735,05/26/16,-0.6199999999999903,-0.5723781388478493
PPG,108.2600,108.7300,107.7000,108.3200,800585,05/25/16,0.5599999999999881,0.5196733481811322
PPG,106.5700,108.1500,106.4600,107.7600,1.08 M,05/24/16,1.3299999999999983,1.2496476557361629
PPG,106.1900,106.8300,105.8000,106.4300,1.49 M,05/23/16,0.22000000000001307,0.2071368044440383
PPG,106.3800,107.0300,105.9250,106.2100,906316,05/20/16,0.5699999999999932,0.5395683453237345
PPG,106.0000,106.6500,104.9600,105.6400,1.15 M,05/19/16,-0.75,-0.7049534730707773
PPG,106.9300,107.7900,106.0700,106.3900,2.00 M,05/18/16,-0.6200000000000045,-0.5793851041958737
PPG,107.8200,108.2650,106.6900,107.0100,1.23 M,05/17/16,-1.1499999999999915,-1.0632396449704065
PPG,107.1900,108.6400,107.0900,108.1600,1.49 M,05/16/16,1.4599999999999937,1.3683223992502285
PPG,107.5700,108.0700,106.4700,106.7000,1.55 M,05/13/16,-0.789999999999992,-0.734952088566371
PPG,108.2300,108.5500,106.3600,107.4900,1.13 M,05/12/16,0.06999999999999318,0.06516477378513608
PPG,108.7400,109.2000,107.3800,107.4200,1.62 M,05/11/16,-1.3100000000000023,-1.2048192771084358
PPG,107.8000,108.8250,107.2600,108.7300,817535,05/10/16,1.2900000000000063,1.200670141474317
PPG,108.1400,108.2300,107.2900,107.4400,1.05 M,05/09/16,-0.8700000000000045,-0.8032499307543205
PPG,107.7000,108.3100,107.1800,108.3100,1.17 M,05/06/16,-0.269999999999996,-0.24866457911217169
PPG,109.0400,109.5300,108.2340,108.5800,810173,05/05/16,-0.010000000000005116,-0.009208951100474367
PPG,108.5100,109.3600,108.0000,108.5900,1.06 M,05/04/16,-0.9099999999999966,-0.8310502283104991
PPG,110.0900,110.2200,109.0200,109.5000,1.30 M,05/03/16,-1.7399999999999949,-1.5641855447680646
PPG,110.1800,111.2500,109.0400,111.2400,1.39 M,05/02/16,0.8499999999999943,0.7699972823625277
PPG,112.4000,112.7300,109.7500,110.3900,2.31 M,04/29/16,-2.3799999999999955,-2.1104903786467992
PPG,111.8900,113.4000,111.5300,112.7700,1.62 M,04/28/16,-0.21999999999999886,-0.1947074962386042
PPG,113.8900,114.6500,112.5900,112.9900,1.25 M,04/27/16,-0.5600000000000023,-0.4931748128577739
PPG,113.3700,113.9100,113.0100,113.5500,1.53 M,04/26/16,0.9500000000000028,0.8436944937833063
PPG,113.0000,113.3000,111.9700,112.6000,951003,04/25/16,-0.5900000000000034,-0.5212474600229733
PPG,111.3500,113.3900,110.7800,113.1900,2.15 M,04/22/16,2.9299999999999926,2.6573553419190934
PPG,111.7000,113.0000,110.1000,110.2600,3.64 M,04/21/16,-5.809999999999988,-5.005600068923916
PPG,116.8500,117.0000,115.5500,116.0700,1.59 M,04/20/16,-0.480000000000004,-0.41184041184041525
PPG,116.2400,116.8000,115.7700,116.5500,1.47 M,04/19/16,0.7999999999999972,0.6911447084233237
PPG,115.0000,115.9300,114.6400,115.7500,1.54 M,04/18/16,0.4000000000000057,0.34677069787603443
PPG,114.6900,115.4000,114.3900,115.3500,1.28 M,04/15/16,0.8399999999999892,0.7335603877390526
PPG,113.7400,114.5900,113.7400,114.5100,1.07 M,04/14/16,0.28000000000000114,0.24511949575418115
PPG,113.4200,114.2900,112.7401,114.2300,1.06 M,04/13/16,1.2900000000000063,1.1421993979104004
PPG,112.0900,113.1700,111.3600,112.9400,871345,04/12/16,1.259999999999991,1.1282234957019974
PPG,112.0700,112.8400,111.5900,111.6800,887120,04/11/16,-0.14999999999999147,-0.13413216489313376
PPG,111.0300,112.1399,111.0300,111.8300,712045,04/08/16,1.2199999999999989,1.1029744146098897
PPG,111.3500,111.8300,110.0800,110.6100,921245,04/07/16,-1.4699999999999989,-1.3115631691648812
PPG,111.3700,112.2000,110.6400,112.0800,812145,04/06/16,0.6499999999999915,0.5833258547967257
PPG,111.4900,112.0350,110.9100,111.4300,1.32 M,04/05/16,-0.7599999999999909,-0.6774222301452811
PPG,113.1500,113.2300,111.6300,112.1900,1.39 M,04/04/16,-0.9200000000000017,-0.8133675183449754
PPG,110.4400,113.2900,110.2200,113.1100,1.45 M,04/01/16,1.6200000000000045,1.4530451161539193
PPG,111.9000,112.0820,111.1300,111.4900,1.44 M,03/31/16,-0.4100000000000108,-0.366398570151931
PPG,111.0000,112.1000,110.7300,111.9000,1.64 M,03/30/16,1.3300000000000125,1.2028579180609682
PPG,108.8000,110.5900,108.6122,110.5700,1.03 M,03/29/16,1.1699999999999875,1.0694698354661676
PPG,109.3900,109.6100,108.7400,109.4000,1.04 M,03/28/16,0.45000000000000284,0.41303350160624397
PPG,108.2000,109.0600,107.3800,108.9500,1.39 M,03/24/16,-0.18999999999999773,-0.17408832691955078
PPG,108.9100,109.6800,108.1300,109.1400,1.22 M,03/23/16,-0.7000000000000028,-0.6372906045156617
PPG,108.8000,110.2000,108.5600,109.8400,1.66 M,03/22/16,0.9500000000000028,0.8724400771420726
PPG,109.6200,110.5300,108.2800,108.8900,2.17 M,03/21/16,-0.010000000000005116,-0.009182736455468425
PPG,109.6200,110.5800,108.0500,108.9000,2.63 M,03/18/16,-0.5,-0.45703839122486284
PPG,106.9000,109.7100,106.9000,109.4000,1.79 M,03/17/16,2.7900000000000063,2.617015289372485
PPG,104.2200,106.6700,104.1300,106.6100,1.12 M,03/16/16,1.8499999999999943,1.7659411989308842
PPG,103.9500,104.9500,103.6200,104.7600,819325,03/15/16,0.020000000000010232,0.019094901661266213
PPG,104.3400,105.0960,104.0000,104.7400,878714,03/14/16,-0.27000000000001023,-0.2571183696790879
PPG,104.1500,105.2300,103.7800,105.0100,1.48 M,03/11/16,2.1000000000000085,2.0406180157419187
PPG,102.6000,104.2200,101.8400,102.9100,902020,03/10/16,0.6299999999999955,0.6159561986703124
PPG,102.2000,102.7050,101.3800,102.2800,1.15 M,03/09/16,0.769999999999996,0.7585459560634381
PPG,102.3800,102.6500,101.3500,101.5100,1.28 M,03/08/16,-1.8599999999999994,-1.7993615168811061
PPG,101.8400,103.4500,101.6400,103.3700,1.65 M,03/07/16,0.8800000000000097,0.8586203532052002
PPG,100.6700,102.9300,100.3150,102.4900,2.07 M,03/04/16,2.1899999999999977,2.1834496510468573
PPG,98.9600,100.7500,98.2300,100.3000,1.92 M,03/03/16,0.9699999999999989,0.9765428370079522
PPG,99.2200,99.7400,98.4300,99.3300,945054,03/02/16,-0.25,-0.2510544286001205
PPG,97.5500,100.4900,96.9200,99.5800,1.50 M,03/01/16,3.049999999999997,3.159639490313889
PPG,97.9700,98.8440,96.4900,96.5300,1.43 M,02/29/16,-1.6299999999999955,-1.6605541972290092
PPG,97.7300,98.4500,97.3600,98.1600,1.08 M,02/26/16,1.1499999999999915,1.1854447995051969
PPG,96.1100,97.0600,94.5600,97.0100,1.04 M,02/25/16,1.3299999999999983,1.3900501672240784
PPG,93.6100,95.8100,92.9500,95.6800,815227,02/24/16,0.8100000000000023,0.8537999367555626
PPG,96.5400,96.6600,94.7000,94.8700,1.26 M,02/23/16,-1.8499999999999943,-1.9127377998345683
PPG,96.8700,98.0000,95.8600,96.7200,1.29 M,02/22/16,1.0900000000000034,1.1398096831538256
PPG,94.6600,95.7400,93.6800,95.6300,1.59 M,02/19/16,0.9399999999999977,0.9927130636814846
PPG,95.2000,95.5800,94.1400,94.6900,1.51 M,02/18/16,-0.3100000000000023,-0.3263157894736866
PPG,94.3100,95.4500,93.0100,95.0000,1.85 M,02/17/16,1.3799999999999955,1.4740440076906594
PPG,93.0600,93.7700,91.7750,93.6200,1.20 M,02/16/16,1.8400000000000034,2.004794072782745
PPG,90.0600,92.1350,89.6200,91.7800,1.44 M,02/12/16,2.510000000000005,2.811694858295066
PPG,89.3500,90.7300,88.4652,89.2700,1.80 M,02/11/16,-2.0700000000000074,-2.266257937376842
PPG,91.6700,93.2100,91.0400,91.3400,1.24 M,02/10/16,0.3500000000000085,0.38465765468733765
PPG,88.6200,91.6800,88.3700,90.9900,1.57 M,02/09/16,1.3399999999999892,1.4947016174009917
PPG,92.2100,92.2800,88.8600,89.6500,1.93 M,02/08/16,-3.219999999999999,-3.4672122321524697
PPG,95.3100,95.8300,92.7100,92.8700,1.54 M,02/05/16,-2.8299999999999983,-2.95715778474399
PPG,95.3300,96.3150,94.6000,95.7000,1.46 M,02/04/16,0.5900000000000034,0.6203343497003505
PPG,94.2900,95.1500,91.8700,95.1100,1.83 M,02/03/16,2.069999999999993,2.224849527085117
PPG,94.9700,94.9700,92.6600,93.0400,1.64 M,02/02/16,-2.549999999999997,-2.667643058897371
PPG,93.7100,95.9000,93.2500,95.5900,1.75 M,02/01/16,0.46999999999999886,0.4941126997476859
PPG,92.7200,95.1400,92.2800,95.1200,2.37 M,01/29/16,3.030000000000001,3.2902595287219034
PPG,93.2900,94.0400,91.9760,92.0900,2.35 M,01/28/16,-0.7099999999999937,-0.765086206896545
PPG,92.4300,94.2400,91.9000,92.8000,1.89 M,01/27/16,0.21999999999999886,0.23763231799524612
PPG,91.4800,93.2900,91.1100,92.5800,1.24 M,01/26/16,1.4699999999999989,1.613434310174513
PPG,92.8100,93.3200,90.9300,91.1100,1.62 M,01/25/16,-2.049999999999997,-2.2005152425933847
PPG,92.7900,94.8100,92.3300,93.1600,1.86 M,01/22/16,1.2399999999999949,1.3489991296779753
PPG,93.0000,94.6700,90.6100,91.9200,4.31 M,01/21/16,-1.5999999999999943,-1.7108639863130821
PPG,90.4500,94.6900,90.0200,93.5200,4.94 M,01/20/16,1.9200000000000017,2.096069868995635
PPG,92.8000,93.2500,89.9000,91.6000,3.32 M,01/19/16,-0.30000000000001137,-0.32644178454843453
PPG,91.6400,92.3500,90.3400,91.9000,2.05 M,01/15/16,-1.6699999999999875,-1.784760072672852
PPG,93.2900,94.1200,91.6000,93.5700,2.30 M,01/14/16,0.519999999999996,0.5588393336915595
PPG,95.9800,96.2400,93.0100,93.0500,2.12 M,01/13/16,-2.0700000000000074,-2.1761984861228
PPG,95.3300,95.5600,93.7900,95.1200,1.32 M,01/12/16,0.6700000000000017,0.7093700370566455
PPG,94.8400,95.7200,93.7300,94.4500,2.19 M,01/11/16,-0.03999999999999204,-0.042332521959987345
PPG,95.6800,96.6400,94.1700,94.4900,1.98 M,01/08/16,-0.7600000000000051,-0.7979002624671969
PPG,95.0700,97.1400,94.6800,95.2500,2.60 M,01/07/16,-1.2199999999999989,-1.264641857572301
PPG,96.4400,97.2000,95.9300,96.4700,1.81 M,01/06/16,-1.8400000000000034,-1.8716305564032178
PPG,98.6300,99.3200,97.4650,98.3100,1.40 M,01/05/16,0.3500000000000085,0.35728868926093155
PPG,97.2700,97.9900,96.0600,97.9600,1.64 M,01/04/16,-0.8599999999999994,-0.8702691762801047
PPG,99.3800,100.0000,98.7900,98.8200,895356,12/31/15,-0.9500000000000028,-0.952190037085299
PPG,100.3300,100.7100,99.7100,99.7700,730411,12/30/15,-0.8100000000000023,-0.8053290912706326
PPG,100.8200,100.9350,99.9500,100.5800,676561,12/29/15,0.6799999999999926,0.6806806806806732
PPG,100.2000,100.3300,99.4200,99.9000,680729,12/28/15,-0.4899999999999949,-0.48809642394660313
PPG,99.9400,100.7900,99.9400,100.3900,371784,12/24/15,0.15000000000000568,0.1496408619313704
PPG,99.3800,100.5200,99.2400,100.2400,827978,12/23/15,1.4799999999999898,1.4985824220332014
PPG,97.9000,99.1600,97.5600,98.7600,887327,12/22/15,1.5300000000000011,1.5735883986423955
PPG,96.9200,97.3700,96.4910,97.2300,1.20 M,12/21/15,0.9399999999999977,0.9762176757711056
PPG,97.9900,98.2000,96.2500,96.2900,1.81 M,12/18/15,-1.9499999999999886,-1.984934853420184
PPG,100.5300,100.6600,98.1700,98.2400,1.58 M,12/17/15,-1.980000000000004,-1.975653562163245
PPG,99.1800,100.3250,98.5300,100.2200,1.59 M,12/16/15,1.6700000000000017,1.6945712836123812
PPG,98.7200,99.4200,98.4700,98.5500,1.26 M,12/15/15,0.8199999999999932,0.8390463521948155
PPG,98.5600,98.9600,96.8800,97.7300,2.22 M,12/14/15,-1.0,-1.0128633647320977
PPG,99.4600,99.9600,98.4100,98.7300,1.78 M,12/11/15,-2.1499999999999915,-2.131245043616169
PPG,101.3300,101.7400,100.5101,100.8800,1.65 M,12/10/15,-0.6700000000000017,-0.6597735105859199
PPG,102.7500,103.5800,100.5900,101.5500,2.04 M,12/09/15,-1.2000000000000028,-1.167883211678835
PPG,103.9200,104.5300,102.6600,102.7500,1.57 M,12/08/15,-2.239999999999995,-2.1335365272883084
PPG,105.2700,105.8600,104.2750,104.9900,1.00 M,12/07/15,-0.9699999999999989,-0.9154397885994705
PPG,104.5100,106.3700,104.3700,105.9600,1.08 M,12/04/15,1.6599999999999966,1.5915627996164876
PPG,105.4000,105.9900,103.9200,104.3000,1.13 M,12/03/15,-1.0400000000000063,-0.9872792861211375
PPG,106.2000,106.7400,105.0800,105.3400,996033,12/02/15,-1.4200000000000017,-1.330086174597229
PPG,106.3900,106.8700,105.8200,106.7600,1.01 M,12/01/15,1.0200000000000102,0.9646302250803955
PPG,106.3600,106.4900,105.1200,105.7400,1.56 M,11/30/15,-0.46999999999999886,-0.44251953676678174
PPG,106.2800,106.6800,105.5400,106.2100,491594,11/27/15,-0.25,-0.23482998309224123
PPG,105.9100,106.7600,105.3800,106.4600,1.15 M,11/25/15,0.9699999999999989,0.9195184377666119
PPG,104.5300,106.0400,104.5300,105.4900,1.16 M,11/24/15,0.01999999999999602,0.01896273821939511
PPG,105.0000,106.0300,104.2900,105.4700,2.00 M,11/23/15,0.8499999999999943,0.8124641559931125
PPG,103.5000,105.0800,103.3100,104.6200,1.76 M,11/20/15,1.25,1.2092483312373028
PPG,104.2300,104.5700,102.8839,103.3700,1.25 M,11/19/15,-0.8599999999999994,-0.8250983402091523
PPG,101.8100,104.5150,101.5500,104.2300,2.13 M,11/18/15,2.5200000000000102,2.477632484514807
PPG,101.9000,103.0607,101.4500,101.7100,1.38 M,11/17/15,-0.2400000000000091,-0.23540951446788533
PPG,100.9100,102.1200,100.2300,101.9500,1.77 M,11/16/15,1.1200000000000045,1.1107805216701423
PPG,99.3400,101.4800,98.8600,100.8300,1.94 M,11/13/15,1.6200000000000045,1.6328999092833432
PPG,100.6100,101.1200,99.2050,99.2100,1.90 M,11/12/15,-2.4000000000000057,-2.3619722468261055
PPG,101.5100,101.9700,100.8540,101.6100,1.01 M,11/11/15,0.4899999999999949,0.4845727848101215
PPG,101.3900,101.8500,100.3800,101.1200,1.32 M,11/10/15,-0.6099999999999994,-0.5996264622038724
PPG,102.7100,102.7700,100.7500,101.7300,893108,11/09/15,-1.269999999999996,-1.2330097087378602
PPG,102.4900,103.2600,101.8300,103.0000,1.01 M,11/06/15,-0.20999999999999375,-0.20346865613796508
PPG,103.7200,104.0050,102.4400,103.2100,910478,11/05/15,-0.6500000000000057,-0.6258424802618965
PPG,104.6500,104.7200,103.7900,103.8600,730526,11/04/15,-0.3299999999999983,-0.3167290526921953
PPG,104.0500,104.7900,103.6600,104.1900,1.01 M,11/03/15,0.18999999999999773,0.18269230769230552
PPG,104.2200,104.6900,103.3600,104.0000,1.46 M,11/02/15,-0.2600000000000051,-0.24937655860349617
PPG,104.5800,104.7800,103.6800,104.2600,1.52 M,10/30/15,-0.01999999999999602,-0.01917913310317992
PPG,104.4000,104.6700,103.5800,104.2800,1.10 M,10/29/15,-0.04999999999999716,-0.0479248538291931
PPG,103.4700,104.3500,102.7100,104.3300,1.04 M,10/28/15,1.3999999999999915,1.3601476731759365
PPG,103.4700,104.1899,102.6300,102.9300,1.32 M,10/27/15,-1.0,-0.9621860867891849
PPG,104.1000,104.4800,103.4200,103.9300,1.28 M,10/26/15,-0.05999999999998806,-0.05769785556302343
PPG,104.5000,104.8800,103.7300,103.9900,1.55 M,10/23/15,0.36999999999999034,0.3570739239528955
PPG,101.6000,104.0000,101.3423,103.6200,2.50 M,10/22/15,2.980000000000004,2.9610492845787
PPG,101.7200,101.8500,99.9999,100.6400,1.98 M,10/21/15,-0.7399999999999949,-0.7299270072992651
PPG,101.1700,102.4000,100.7500,101.3800,1.44 M,10/20/15,0.19999999999998863,0.19766752322592274
PPG,100.0300,101.2800,99.4000,101.1800,1.30 M,10/19/15,0.44000000000001194,0.4367679174111693
PPG,100.2000,103.2600,99.9900,100.7400,3.80 M,10/16/15,1.4799999999999898,1.491033649002609
PPG,97.8100,99.3800,96.3101,99.2600,3.25 M,10/15/15,1.940000000000012,1.9934237566790096
PPG,96.8500,98.2300,96.7600,97.3200,2.24 M,10/14/15,0.13999999999998636,0.14406256431363074
PPG,96.5400,98.0500,95.8700,97.1800,2.23 M,10/13/15,-0.1599999999999966,-0.16437230326689603
PPG,96.6600,97.7100,96.0100,97.3400,1.82 M,10/12/15,1.3700000000000045,1.4275294362821762
PPG,95.7000,96.4570,95.0100,95.9700,1.70 M,10/09/15,0.20000000000000284,0.20883366398663764
PPG,94.1700,95.9900,93.7900,95.7700,1.29 M,10/08/15,1.4599999999999937,1.5480860990350904
PPG,92.9000,94.3400,92.4800,94.3100,2.21 M,10/07/15,0.9099999999999966,0.9743040685224802
PPG,94.6100,95.1950,93.2500,93.4000,2.35 M,10/06/15,-1.1899999999999977,-1.2580611058251376
PPG,93.4400,94.8500,93.2000,94.5900,1.97 M,10/05/15,1.9300000000000068,2.0828836606950216
PPG,89.0500,92.7200,88.3500,92.6600,2.32 M,10/02/15,2.530000000000001,2.807056473982027
PPG,82.9300,90.1800,82.9300,90.1300,3.58 M,10/01/15,2.4399999999999977,2.7825293648078433
PPG,87.0900,88.2200,86.9500,87.6900,2.93 M,09/30/15,1.7399999999999949,2.024432809773118
PPG,84.6900,86.3200,84.5000,85.9500,2.48 M,09/29/15,1.4399999999999977,1.7039403620873241
PPG,87.5000,87.8300,84.4000,84.5100,2.32 M,09/28/15,-3.8299999999999983,-4.33552184740774
PPG,88.6600,89.2300,87.6300,88.3400,1.51 M,09/25/15,0.23000000000000398,0.2610373396890296
PPG,89.0500,89.4600,87.1900,88.1100,3.72 M,09/24/15,-1.8299999999999983,-2.034689793195462
PPG,91.7500,92.1690,89.8000,89.9400,1.70 M,09/23/15,-1.6800000000000068,-1.8336607727570473
PPG,92.2300,92.5700,90.5400,91.6200,1.90 M,09/22/15,-1.8299999999999983,-1.9582664526484732
PPG,93.5500,94.3300,93.0200,93.4500,1.19 M,09/21/15,0.2600000000000051,0.2789998926923545
PPG,93.1100,93.9900,92.7300,93.1900,2.22 M,09/18/15,-1.269999999999996,-1.34448443785729
PPG,95.0700,96.0400,94.1100,94.4600,2.17 M,09/17/15,-0.6099999999999994,-0.6416324813295461
PPG,94.4200,95.3600,94.3200,95.0700,1.83 M,09/16/15,0.789999999999992,0.8379295714891727
PPG,94.1600,95.3300,93.6700,94.2800,2.39 M,09/15/15,0.12000000000000455,0.12744265080714162
PPG,96.3100,96.7700,93.7400,94.1600,2.40 M,09/14/15,-2.5600000000000023,-2.646815550041359
PPG,96.3000,96.7800,95.4200,96.7200,1.47 M,09/11/15,0.0799999999999983,0.08278145695364061
PPG,96.0900,97.3900,95.5700,96.6400,2.11 M,09/10/15,0.5400000000000063,0.5619146722164478
PPG,97.3600,97.8800,95.9700,96.1000,2.93 M,09/09/15,-0.30000000000001137,-0.31120331950208646
PPG,94.9400,96.4100,94.5200,96.4000,1.71 M,09/08/15,3.0900000000000034,3.3115421712571034
PPG,92.6700,93.8400,92.2900,93.3100,2.15 M,09/04/15,-0.6700000000000017,-0.7129176420515021
PPG,94.0600,94.8900,93.5600,93.9800,1.47 M,09/03/15,0.45000000000000284,0.48112904950283636
PPG,92.8500,93.5300,91.6200,93.5300,2.50 M,09/02/15,2.180000000000007,2.386425834701704
PPG,93.2700,93.6300,90.8100,91.3500,2.43 M,09/01/15,-3.940000000000012,-4.13474656312311
PPG,95.5600,96.6600,94.7600,95.2900,1.71 M,08/31/15,-0.8199999999999932,-0.853189054208712
PPG,94.8500,96.3770,94.8500,96.1100,1.71 M,08/28/15,0.9200000000000017,0.9664880764786236
PPG,94.6700,95.8500,93.2700,95.1900,4.59 M,08/27/15,2.0900000000000034,2.2448979591836773
PPG,92.6800,93.2200,91.0000,93.1000,3.99 M,08/26/15,2.049999999999997,2.2515101592531543
PPG,94.8700,94.8700,91.0200,91.0500,2.96 M,08/25/15,-1.210000000000008,-1.311510947322792
PPG,92.0300,95.9500,91.0000,92.2600,3.95 M,08/24/15,-4.949999999999989,-5.092068717210152
PPG,98.5600,99.3100,97.1200,97.2100,2.54 M,08/21/15,-2.660000000000011,-2.663462501251638
PPG,101.9100,102.4000,99.8700,99.8700,2.30 M,08/20/15,-2.6299999999999955,-2.565853658536581
PPG,103.7800,104.0900,102.1500,102.5000,2.18 M,08/19/15,-2.069999999999993,-1.9795352395524466
PPG,104.4200,105.7100,104.3600,104.5700,2.43 M,08/18/15,0.30999999999998806,0.2973335891041512
PPG,104.2100,105.0900,103.8500,104.2600,1.58 M,08/17/15,-0.4399999999999977,-0.42024832855778194
PPG,103.6400,104.8000,103.3900,104.7000,1.34 M,08/14/15,1.1800000000000068,1.139876352395679
PPG,104.2600,104.4000,103.4600,103.5200,1.23 M,08/13/15,-0.5100000000000051,-0.49024319907719416
PPG,103.6400,104.2100,102.2500,104.0300,3.57 M,08/12/15,-0.37999999999999545,-0.36394981323627573
PPG,105.3600,105.4100,103.8000,104.4100,1.48 M,08/11/15,-2.200000000000003,-2.063596285526689
PPG,104.7200,106.6100,104.4000,106.6100,1.20 M,08/10/15,2.6899999999999977,2.5885296381832155
PPG,104.8600,105.1450,103.7400,103.9200,1.59 M,08/07/15,-1.289999999999992,-1.2261191901910389
PPG,106.2400,106.5400,104.9050,105.2100,1.51 M,08/06/15,-1.3800000000000097,-1.294680551646505
PPG,107.6900,108.0900,106.2601,106.5900,1.21 M,08/05/15,0.04999999999999716,0.0469307302421599
PPG,108.0000,108.4600,106.2000,106.5400,1.60 M,08/04/15,-1.3299999999999983,-1.2329656067488628
PPG,107.3100,108.7100,107.0700,107.8700,1.54 M,08/03/15,-0.5099999999999909,-0.47056652518914094
PPG,109.0000,109.3700,108.1800,108.3800,1.36 M,07/31/15,-0.14000000000000057,-0.12900847769996368
PPG,108.5000,108.7600,107.5700,108.5200,1.23 M,07/30/15,-0.04999999999999716,-0.04605323754259663
PPG,107.0800,108.9900,106.8400,108.5700,2.65 M,07/29/15,1.6499999999999915,1.5432098765432019
PPG,103.0100,107.1900,102.6400,106.9200,3.08 M,07/28/15,4.530000000000001,4.424260181658366
PPG,102.6900,103.2100,101.6100,102.3900,2.77 M,07/27/15,-0.8599999999999994,-0.8329297820823239
PPG,105.5400,105.6000,102.1900,103.2500,3.11 M,07/24/15,-2.3799999999999955,-2.253147779986742
PPG,108.1000,108.1900,105.1000,105.6300,3.03 M,07/23/15,-2.460000000000008,-2.2758812101026993
PPG,108.1200,108.8100,107.2900,108.0900,2.44 M,07/22/15,-0.11999999999999034,-0.11089548100913996
PPG,111.1200,111.5500,107.8600,108.2100,3.80 M,07/21/15,-2.6400000000000006,-2.3815967523680657
PPG,111.9500,112.0000,110.6200,110.8500,2.15 M,07/20/15,-0.9500000000000028,-0.8497316636851546
PPG,112.4600,113.5400,111.6600,111.8000,3.35 M,07/17/15,-0.01999999999999602,-0.017885888034337348
PPG,117.0900,118.2700,111.5350,111.8200,5.36 M,07/16/15,-5.160000000000011,-4.411010429133195
PPG,117.3200,117.9900,116.7900,116.9800,1.51 M,07/15/15,-0.6299999999999955,-0.5356687356517265
PPG,116.5000,117.8900,116.4600,117.6100,1.19 M,07/14/15,1.0799999999999983,0.9267999656740739
PPG,116.1900,116.6100,115.9600,116.5300,1.47 M,07/13/15,1.6299999999999955,1.4186248912097437
PPG,114.1200,115.0300,113.5400,114.9000,1.36 M,07/10/15,2.260000000000005,2.00639204545455
PPG,114.6600,114.8500,112.6300,112.6400,1.72 M,07/09/15,-0.45999999999999375,-0.40671971706453913
PPG,113.9100,114.4850,113.0200,113.1000,1.54 M,07/08/15,-1.960000000000008,-1.7034590648357448
PPG,115.3300,115.3300,113.3600,115.0600,1.64 M,07/07/15,-0.03999999999999204,-0.034752389226752424
PPG,114.8100,115.9800,114.2100,115.1000,1.43 M,07/06/15,-0.8100000000000023,-0.6988180484858962
PPG,117.1500,117.3200,115.2400,115.9100,943202,07/02/15,-0.5900000000000034,-0.5064377682403463
PPG,115.7800,116.5550,115.2300,116.5000,1.26 M,07/01/15,1.7800000000000011,1.5516039051603916
PPG,115.6900,116.0000,114.4000,114.7200,1.12 M,06/30/15,-0.2600000000000051,-0.22612628283180128
PPG,117.1400,117.3100,114.8800,114.9800,996831,06/29/15,-3.030000000000001,-2.567579018727227
PPG,118.1400,118.2300,117.6000,118.0100,751278,06/26/15,0.27000000000001023,0.22931883811789558
PPG,118.1000,118.5600,117.7000,117.7400,1.21 M,06/25/15,-0.23000000000000398,-0.194964821564808
PPG,118.2800,118.4900,117.9000,117.9700,1.92 M,06/24/15,-0.3200000000000074,-0.27052159945896304
PPG,118.4800,118.6900,117.7600,118.2900,1.17 M,06/23/15,0.12000000000000455,0.1015486164001054
PPG,118.0000,118.6400,117.7600,118.1700,901041,06/22/15,0.8700000000000045,0.7416879795396458
PPG,117.1600,118.0200,116.8200,117.3000,2.21 M,06/19/15,-0.5100000000000051,-0.4329004329004372
PPG,117.1200,118.2400,116.7900,117.8100,1.67 M,06/18/15,1.1400000000000006,0.9771149395731555
PPG,116.2700,116.8300,115.1400,116.6700,2.53 M,06/17/15,0.6700000000000017,0.5775862068965532
PPG,115.2200,116.1900,115.0000,116.0000,1.29 M,06/16/15,0.5699999999999932,0.4938057697305667
PPG,115.6400,116.1400,114.9500,115.4300,990493,06/15/15,-1.1949999999999932,-1.024651661307604
PPG,116.8250,116.9700,116.0950,116.6250,1.16 M,06/12/15,-0.37000000000000455,-0.31625283131758153
PPG,116.4050,117.4750,115.4800,116.9950,1.81 M,06/11/15,1.0550000000000068,0.9099534241849291
PPG,115.2150,116.4950,115.0050,115.9400,1.98 M,06/10/15,1.3149999999999977,1.1472191930207178
PPG,114.2400,115.1450,113.8000,114.6250,1.07 M,06/09/15,0.5750000000000028,0.5041648399824663
PPG,114.2050,114.2825,113.6050,114.0500,1.05 M,06/08/15,-0.26500000000000057,-0.23181559725320436
PPG,113.9600,114.5800,113.2350,114.3150,1.05 M,06/05/15,-0.07000000000000739,-0.06119683524938356
PPG,114.4650,115.1250,114.1200,114.3850,1.41 M,06/04/15,-0.6099999999999994,-0.5304578459933036
PPG,114.6650,115.0500,114.0122,114.9950,1.11 M,06/03/15,0.8700000000000045,0.7623220153340675
PPG,114.3350,114.9550,113.5050,114.1250,768690,06/02/15,-0.39000000000000057,-0.3405667379819243
PPG,114.0850,115.1300,113.6400,114.5150,903348,06/01/15,0.07000000000000739,0.06116475162742575
PPG,114.6350,115.1600,114.0200,114.4450,1.20 M,05/29/15,-0.4650000000000034,-0.40466452005917974
PPG,114.1450,115.0650,113.6750,114.9100,1.23 M,05/28/15,0.3400000000000034,0.2967618050100405
PPG,113.7600,114.8250,113.6100,114.5700,1.43 M,05/27/15,1.2099999999999937,1.0673959068454426
PPG,114.2100,114.5900,112.8750,113.3600,1.47 M,05/26/15,-1.2349999999999994,-1.0777084515031192
PPG,114.3200,115.1600,114.3200,114.5950,742834,05/22/15,-0.01999999999999602,-0.017449722985644133
PPG,114.1600,115.1150,114.1201,114.6150,664410,05/21/15,0.14999999999999147,0.1310444240597488
PPG,115.0000,115.3900,114.1150,114.4650,1.28 M,05/20/15,-0.5300000000000011,-0.4608896038958225
PPG,115.4400,115.9550,114.6950,114.9950,1.48 M,05/19/15,-0.46999999999999886,-0.4070497553371141
PPG,115.8500,115.8500,114.7500,115.4650,1.84 M,05/18/15,-0.3849999999999909,-0.3323262839879076
PPG,114.3400,115.8900,113.9200,115.8500,1.26 M,05/15/15,1.4499999999999886,1.2674825174825075
PPG,113.6150,114.5000,113.0000,114.4000,1.53 M,05/14/15,1.7000000000000028,1.5084294587400202
PPG,112.2550,112.9000,111.2500,112.7000,1.54 M,05/13/15,0.4549999999999983,0.4053632678515732
PPG,113.2550,113.6600,112.2100,112.2450,1.25 M,05/12/15,-1.4200000000000017,-1.2492851801346074
PPG,114.2650,115.0900,113.6050,113.6650,1.72 M,05/11/15,-0.8599999999999994,-0.7509277450338349
PPG,113.8900,115.2600,113.4000,114.5250,1.59 M,05/08/15,2.0700000000000074,1.8407362945178136
PPG,110.7500,112.8800,110.3400,112.4550,2.17 M,05/07/15,1.4299999999999926,1.2879981986039113
PPG,111.3300,111.4000,110.3300,111.0250,1.41 M,05/06/15,0.23499999999999943,0.2121130065890418
PPG,113.2500,113.4900,110.7050,110.7900,1.42 M,05/05/15,-1.7249999999999943,-1.533128916144509
PPG,112.4400,113.0000,112.2850,112.5150,1.09 M,05/04/15,0.23999999999999488,0.2137608550434156
PPG,110.8650,112.4050,110.5800,112.2750,1.52 M,05/01/15,1.4950000000000045,1.3495215742913924
PPG,110.2400,111.5850,110.0100,110.7800,2.22 M,04/30/15,-0.3049999999999926,-0.2745645226628191
PPG,109.8500,111.1650,109.5650,111.0850,1.75 M,04/29/15,0.7049999999999983,0.6387026635259996
PPG,110.2650,110.6700,109.3000,110.3800,1.96 M,04/28/15,-0.045000000000001705,-0.040751641385557355
PPG,111.7300,111.9800,110.1875,110.4250,2.17 M,04/27/15,-1.230000000000004,-1.1016076306479816
PPG,112.9350,113.4050,111.2500,111.6550,1.73 M,04/24/15,-1.2849999999999966,-1.137772268461127
PPG,113.0400,113.4300,112.6850,112.9400,855502,04/23/15,-0.2600000000000051,-0.2296819787985911
PPG,113.5800,114.2000,112.7450,113.2000,872110,04/22/15,-0.32500000000000284,-0.28628055494384747
PPG,114.1050,114.1400,112.7850,113.5250,1.18 M,04/21/15,-0.3149999999999977,-0.2767041461700612
PPG,114.0200,114.4700,112.7350,113.8400,1.91 M,04/20/15,0.5349999999999966,0.4721768677463453
PPG,112.5650,114.0050,112.1750,113.3050,2.21 M,04/17/15,-0.06999999999999318,-0.061742006615208976
PPG,116.5150,116.5550,113.2825,113.3750,2.49 M,04/16/15,-0.2600000000000051,-0.22880274563295208
PPG,114.3700,114.5450,113.2600,113.6350,1.85 M,04/15/15,-0.34499999999999886,-0.3026846815230732
PPG,114.7050,114.8590,113.4600,113.9800,1.28 M,04/14/15,-0.8149999999999977,-0.7099612352454355
PPG,114.6750,115.3750,114.2100,114.7950,1.34 M,04/13/15,0.045000000000001705,0.03921568627451129
PPG,114.5000,114.9500,113.5162,114.7500,1.41 M,04/10/15,0.5799999999999983,0.5080143645440994
PPG,113.1850,114.2600,112.7075,114.1700,1.18 M,04/09/15,1.105000000000004,0.9773139344624808
PPG,112.1600,113.3300,112.1600,113.0650,1.62 M,04/08/15,0.6149999999999949,0.5469097376611782
PPG,112.0200,113.1650,111.7050,112.4500,1.19 M,04/07/15,0.3400000000000034,0.3032735706003063
PPG,111.3300,112.4850,111.0000,112.1100,1.10 M,04/06/15,0.3199999999999932,0.2862510063511881
PPG,111.7100,112.6350,111.4650,111.7900,1.42 M,04/02/15,-0.4399999999999977,-0.3920520359975031
PPG,112.6750,112.9800,111.1750,112.2300,1.62 M,04/01/15,-0.539999999999992,-0.4788507581803601
PPG,111.4650,113.2000,111.0800,112.7700,1.84 M,03/31/15,0.5249999999999915,0.4677268475210401
PPG,112.1500,113.0250,111.5750,112.2450,1.27 M,03/30/15,0.7650000000000006,0.6862217438105495
PPG,111.0100,112.0000,110.4650,111.4800,1.22 M,03/27/15,0.8299999999999983,0.750112968820604
PPG,110.2950,111.2500,110.0250,110.6500,1.13 M,03/26/15,-0.5799999999999983,-0.5214420569990095
PPG,112.8950,113.5150,111.1400,111.2300,1.31 M,03/25/15,-1.5150000000000006,-1.343740298904608
PPG,113.1950,113.9350,112.7450,112.7450,1.17 M,03/24/15,-0.46999999999999886,-0.41513933666033553
PPG,114.3650,114.9100,113.2100,113.2150,1.29 M,03/23/15,-1.3149999999999977,-1.1481707849471734
PPG,113.6700,115.1250,112.8900,114.5300,1.56 M,03/20/15,1.4450000000000074,1.2777998850422314
PPG,114.0850,114.4870,112.9250,113.0850,1.02 M,03/19/15,-1.7349999999999994,-1.5110607908029956
PPG,112.9550,116.0800,111.5000,114.8200,2.11 M,03/18/15,1.1899999999999977,1.047258646484201
PPG,114.2350,114.7700,113.0650,113.6300,1.12 M,03/17/15,-1.4100000000000108,-1.225660639777478
PPG,114.3700,115.1250,114.0150,115.0400,1.09 M,03/16/15,1.085000000000008,0.9521302268439367
PPG,114.3550,114.7450,113.1675,113.9550,1.18 M,03/13/15,-0.894999999999996,-0.7792773182411807
PPG,112.6950,114.9150,112.5550,114.8500,986326,03/12/15,2.259999999999991,2.0072830624389297
PPG,113.9100,114.0750,112.5050,112.5900,1.59 M,03/11/15,-1.2449999999999903,-1.093688232968762
PPG,114.9650,115.0600,113.8175,113.8350,1.61 M,03/10/15,-2.3100000000000023,-1.988893193852514
PPG,116.2200,116.8600,115.7600,116.1450,1.42 M,03/09/15,0.1599999999999966,0.13794887269905298
PPG,116.6850,117.3850,115.8250,115.9850,1.09 M,03/06/15,-1.7399999999999949,-1.4780208112125675
PPG,117.9150,118.1350,117.0601,117.7250,974302,03/05/15,0.05499999999999261,0.04674088552731589
PPG,116.5600,118.9500,116.1050,117.6700,1.69 M,03/04/15,0.4000000000000057,0.3410932037179208
PPG,118.4450,118.4900,116.9150,117.2700,1.24 M,03/03/15,-1.5799999999999983,-1.3294068153134189
PPG,118.4450,118.8750,117.7800,118.8500,1.45 M,03/02/15,1.1599999999999966,0.9856402413119183
PPG,117.9350,118.4800,117.0500,117.6900,1.39 M,02/27/15,-0.23000000000000398,-0.19504748982361259
PPG,117.6200,118.4050,117.3300,117.9200,967696,02/26/15,0.08500000000000796,0.07213476471337715
PPG,118.0000,118.7050,117.5850,117.8350,1.09 M,02/25/15,-0.5500000000000114,-0.4645858850361206
PPG,118.4250,118.5975,117.7550,118.3850,994720,02/24/15,0.14000000000000057,0.11839824094042078
PPG,117.6050,118.5500,117.4089,118.2450,1.35 M,02/23/15,-0.07499999999998863,-0.06338742393508168
PPG,117.3150,118.6000,116.0500,118.3200,1.35 M,02/20/15,0.5699999999999932,0.48407643312101334
PPG,117.2400,118.5675,117.0100,117.7500,949562,02/19/15,-0.37000000000000455,-0.31324077209617723
PPG,117.1500,118.1900,116.6150,118.1200,1.14 M,02/18/15,0.1950000000000074,0.16535933856265203
PPG,117.1500,118.4900,116.7550,117.9250,1.74 M,02/17/15,-0.46000000000000796,-0.3885627402120268
PPG,116.8450,118.4250,116.5500,118.3850,1.25 M,02/13/15,1.8700000000000045,1.6049435694974934
PPG,115.1300,116.7950,114.5575,116.5150,1.63 M,02/12/15,2.405000000000001,2.1076154587678566
PPG,113.9600,114.6000,113.4550,114.1100,776132,02/11/15,-0.010000000000005116,-0.008762705923593687
PPG,114.5900,114.7250,112.9500,114.1200,1.01 M,02/10/15,0.710000000000008,0.6260470857949105
PPG,115.1800,115.4300,113.0900,113.4100,1.74 M,02/09/15,-2.0200000000000102,-1.7499783418522135
PPG,115.0900,116.0000,114.5550,115.4300,1.15 M,02/06/15,0.24500000000000455,0.21270130659374445
PPG,114.4800,115.6150,113.9150,115.1850,1.35 M,02/05/15,1.460000000000008,1.2837986370630978
PPG,113.3000,114.4700,112.5050,113.7250,1.10 M,02/04/15,0.2749999999999915,0.2423975319523944
PPG,113.2150,113.8750,111.9209,113.4500,1.33 M,02/03/15,1.585000000000008,1.4168864256022957
PPG,110.6250,112.1200,109.9400,111.8650,1.59 M,02/02/15,0.42499999999999716,0.3813711414213901
PPG,111.3700,113.0300,111.3700,111.4400,2.71 M,01/30/15,-1.4150000000000063,-1.253821275087507
PPG,111.0000,113.0350,110.1550,112.8550,1.53 M,01/29/15,1.9849999999999994,1.790385135744565
PPG,113.0650,113.8550,110.6200,110.8700,1.41 M,01/28/15,-2.1099999999999994,-1.867587183572313
PPG,113.0000,114.0125,112.1300,112.9800,1.25 M,01/27/15,-0.9299999999999926,-0.8164340268633067
PPG,113.5500,114.0750,112.6050,113.9100,1.00 M,01/26/15,0.0049999999999954525,0.004389622931386201
PPG,115.5000,115.5000,113.8850,113.9050,952886,01/23/15,-1.769999999999996,-1.5301491247028278
PPG,114.3550,115.9800,113.1550,115.6750,1.18 M,01/22/15,1.6599999999999966,1.4559487786694703
PPG,113.7350,114.8100,113.1050,114.0150,1.47 M,01/21/15,-0.06499999999999773,-0.05697755960729114
PPG,115.5450,116.0000,113.0800,114.0800,2.08 M,01/20/15,-1.1099999999999994,-0.9636253146974559
PPG,113.0350,115.4500,112.5302,115.1900,1.89 M,01/16/15,2.0900000000000034,1.847922192749782
PPG,114.5550,116.9900,112.3850,113.1000,3.11 M,01/15/15,-0.3850000000000051,-0.3392518835088383
PPG,112.1600,113.5200,111.2650,113.4850,2.56 M,01/14/15,-0.010000000000005116,-0.008810960835283594
PPG,113.7050,115.1200,112.2350,113.4950,1.66 M,01/13/15,0.37000000000000455,0.3270718232044239
PPG,113.5000,114.0250,112.4150,113.1250,1.45 M,01/12/15,-0.35999999999999943,-0.31722254042384407
PPG,115.1150,115.3850,112.8750,113.4850,1.60 M,01/09/15,-1.4549999999999983,-1.2658778493126834
PPG,113.1200,115.3449,112.4650,114.9400,2.08 M,01/08/15,2.980000000000004,2.661664880314402
PPG,111.4900,112.3500,110.6950,111.9600,2.37 M,01/07/15,0.49499999999999034,0.4440855874041092
PPG,112.3550,112.6500,109.9050,111.4650,1.71 M,01/06/15,-0.2749999999999915,-0.24610703418649676
PPG,113.5300,113.8750,111.2950,111.7400,1.93 M,01/05/15,-2.960000000000008,-2.5806451612903296
PPG,115.5750,116.1700,113.7950,114.7000,888776,01/02/15,-0.875,-0.7570841444949167
PPG,116.1250,116.8350,115.5100,115.5750,1.27 M,12/31/14,-0.25499999999999545,-0.22015022015021624
PPG,115.7650,116.3050,115.5650,115.8300,843294,12/30/14,-0.4000000000000057,-0.3441452292867639
PPG,115.4550,116.5800,115.3050,116.2300,868892,12/29/14,0.4350000000000023,0.3756638887689471
PPG,115.6900,116.3950,115.2950,115.7950,604984,12/26/14,0.23499999999999943,0.2033575631706468
PPG,115.7500,115.9200,115.1900,115.5600,541664,12/24/14,0.025000000000005684,0.021638464534561547
PPG,115.0900,116.0800,114.9975,115.5350,1.02 M,12/23/14,0.7349999999999994,0.640243902439024
PPG,114.3200,115.0150,113.6650,114.8000,1.65 M,12/22/14,0.8499999999999943,0.7459412022816975
PPG,114.0400,114.8000,113.5050,113.9500,2.14 M,12/19/14,0.4450000000000074,0.39205321351482963
PPG,111.9500,113.5500,111.4550,113.5050,1.51 M,12/18/14,2.375,2.13713668676325
PPG,108.5450,111.5200,108.3450,111.1300,1.94 M,12/17/14,2.799999999999997,2.5846949136896495
PPG,108.1450,110.6650,108.0200,108.3300,1.95 M,12/16/14,-0.7250000000000085,-0.6648021640456728
PPG,110.5100,111.2350,108.1150,109.0550,2.58 M,12/15/14,-0.8549999999999898,-0.777909198435074
PPG,110.8200,111.2050,109.8800,109.9100,2.74 M,12/12/14,-1.3900000000000006,-1.2488769092542682
PPG,110.4300,112.1550,110.2350,111.3000,1.50 M,12/11/14,0.875,0.7923930269413629
PPG,112.8050,112.8050,110.2400,110.4250,1.53 M,12/10/14,-2.4200000000000017,-2.144534538526299
PPG,110.5050,112.8950,110.5050,112.8450,1.78 M,12/09/14,1.4249999999999972,1.2789445341949355
PPG,111.2000,111.9750,110.8350,111.4200,1.81 M,12/08/14,-0.0049999999999954525,-0.004487323311640523
PPG,111.9500,112.7250,111.2250,111.4250,1.53 M,12/05/14,-0.4300000000000068,-0.3844262661481443
PPG,111.5550,112.5825,111.2300,111.8550,2.05 M,12/04/14,0.22500000000000853,0.20155872077399314
PPG,109.8000,111.8150,109.5650,111.6300,1.59 M,12/03/14,2.0649999999999977,1.8847259617578587
PPG,110.6050,111.1200,108.9725,109.5650,1.82 M,12/02/14,-0.37000000000000455,-0.33656251421294814
PPG,108.7300,110.3900,108.3925,109.9350,3.20 M,12/01/14,0.5250000000000057,0.4798464491362816
PPG,109.1500,109.7700,108.2400,109.4100,1.29 M,11/28/14,0.9350000000000023,0.86194975800876
PPG,107.5750,108.5650,107.2750,108.4750,909228,11/26/14,0.7749999999999915,0.7195914577530097
PPG,107.5900,108.7200,107.5900,107.7000,1.36 M,11/25/14,-0.08499999999999375,-0.07886069490188222
PPG,107.8000,108.2700,107.2250,107.7850,2.37 M,11/24/14,0.10999999999999943,0.10215927559786342
PPG,107.5200,108.8650,106.8500,107.6750,2.58 M,11/21/14,1.3449999999999989,1.2649299351076826
PPG,104.9200,106.4400,104.8050,106.3300,1.41 M,11/20/14,1.0,0.9493971328206589
PPG,104.3450,105.5400,104.0100,105.3300,2.72 M,11/19/14,1.0799999999999983,1.0359712230215812
PPG,102.4750,104.3750,102.1750,104.2500,1.80 M,11/18/14,1.5849999999999937,1.5438562314323223
PPG,102.0000,103.1850,101.7050,102.6650,1.09 M,11/17/14,0.7150000000000034,0.7013241785188852
PPG,102.5550,103.1750,101.7355,101.9500,1.61 M,11/14/14,-0.664999999999992,-0.6480534034985062
PPG,102.1150,103.4950,101.5050,102.6150,1.98 M,11/13/14,0.664999999999992,0.6522805296713997
PPG,102.6200,102.7970,101.5800,101.9500,2.08 M,11/12/14,-0.6799999999999926,-0.6625742960148033
PPG,103.1250,103.5050,102.3550,102.6300,1.41 M,11/11/14,-0.5050000000000097,-0.4896494885344545
PPG,103.2850,103.6650,102.6700,103.1350,1.23 M,11/10/14,-0.3149999999999977,-0.3044949250845797
PPG,101.5300,103.7450,101.5300,103.4500,1.82 M,11/07/14,0.40500000000000114,0.3930321704109866
PPG,102.5000,103.1300,101.5800,103.0450,1.99 M,11/06/14,0.4200000000000017,0.4092570036540821
PPG,100.2100,102.7300,99.8250,102.6250,2.96 M,11/05/14,3.3900000000000006,3.4161334206681118
PPG,100.1250,100.3950,98.6350,99.2350,1.71 M,11/04/14,-0.9500000000000028,-0.9482457453710663
PPG,102.0250,102.3920,99.9400,100.1850,2.41 M,11/03/14,-1.6599999999999966,-1.6299278315086618
PPG,97.3950,102.2500,96.7750,101.8450,5.40 M,10/31/14,5.670000000000002,5.895502989342347
PPG,95.6700,96.7200,95.3900,96.1750,1.37 M,10/30/14,0.14999999999999147,0.156209320489447
PPG,97.5050,97.7140,95.3900,96.0250,3.75 M,10/29/14,-1.6699999999999875,-1.7094017094016967
PPG,97.3850,98.4300,96.9800,97.6950,2.25 M,10/28/14,1.394999999999996,1.4485981308411173
PPG,96.5800,96.9200,95.6000,96.3000,2.10 M,10/27/14,-1.625,-1.6594332397242788
PPG,97.4300,98.0550,96.3100,97.9250,1.61 M,10/24/14,0.4749999999999943,0.4874294510005072
PPG,97.9850,98.2850,97.0550,97.4500,1.71 M,10/23/14,0.5949999999999989,0.6143203758195228
PPG,98.6300,99.2500,96.6500,96.8550,2.94 M,10/22/14,-1.164999999999992,-1.1885329524586739
PPG,95.9750,98.1375,95.9750,98.0200,2.40 M,10/21/14,2.4299999999999926,2.5421069149492546
PPG,93.8900,95.6350,93.3850,95.5900,2.41 M,10/20/14,1.9650000000000034,2.0987983978638223
PPG,92.3200,94.1850,91.8250,93.6250,3.45 M,10/17/14,2.7099999999999937,2.9808062475938994
PPG,86.9500,91.7500,85.7800,90.9150,4.10 M,10/16/14,0.6650000000000063,0.7368421052631648
PPG,87.6850,90.5700,86.5065,90.2500,3.39 M,10/15/14,1.4599999999999937,1.6443293163644483
PPG,88.5600,89.9800,87.7100,88.7900,2.55 M,10/14/14,0.49500000000000455,0.5606206466957411
PPG,91.6450,91.9950,88.0900,88.2950,2.50 M,10/13/14,-3.480000000000004,-3.7918823208934938
PPG,92.8900,93.7050,91.7300,91.7750,2.00 M,10/10/14,-1.2399999999999949,-1.3331183142503842
PPG,94.9950,95.1300,92.8050,93.0150,2.20 M,10/09/14,-1.75,-1.8466733498654566
PPG,93.2250,94.8800,92.5400,94.7650,2.85 M,10/08/14,1.5550000000000068,1.6682759360583703
PPG,95.1950,95.1950,93.1650,93.2100,2.35 M,10/07/14,-2.4250000000000114,-2.535682543002051
PPG,96.7700,96.7700,95.2800,95.6350,939324,10/06/14,-0.28999999999999204,-0.3023195204586834
PPG,96.0150,96.8300,95.3650,95.9250,1.44 M,10/03/14,0.3400000000000034,0.35570434691636077
PPG,95.4350,95.9500,93.9450,95.5850,1.72 M,10/02/14,0.0,0.0
PPG,98.2500,98.2500,94.8350,95.5850,3.03 M,10/01/14,-2.785000000000011,-2.8311477076344524
PPG,99.5400,99.6900,98.1900,98.3700,1.60 M,09/30/14,-1.3599999999999994,-1.363681941241351
PPG,98.6400,99.9450,98.3625,99.7300,1.10 M,09/29/14,0.5050000000000097,0.5089443184681378
PPG,98.5600,99.3500,98.5000,99.2250,766840,09/26/14,0.519999999999996,0.5268223494250505
PPG,99.6950,99.8100,98.7050,98.7050,1.00 M,09/25/14,-1.5649999999999977,-1.5607858781290493
PPG,99.3500,100.4150,99.2400,100.2700,1.18 M,09/24/14,1.1299999999999955,1.139802299778087
PPG,99.6200,99.9650,99.0450,99.1400,1.34 M,09/23/14,-0.7000000000000028,-0.7011217948717977
PPG,101.4800,101.7300,99.7600,99.8400,1.36 M,09/22/14,-1.5649999999999977,-1.5433164045165404
PPG,101.9800,102.5800,101.3900,101.4050,1.46 M,09/19/14,-0.17499999999999716,-0.17227800748178496
PPG,101.1050,102.0175,100.9450,101.5800,1.06 M,09/18/14,0.664999999999992,0.6589704206510351
PPG,100.7300,101.4500,100.4150,100.9150,1.36 M,09/17/14,0.6550000000000011,0.6533014163175754
PPG,99.6900,100.9350,99.2650,100.2600,1.62 M,09/16/14,0.40500000000000114,0.40558810274898716
PPG,99.8800,100.1925,99.2417,99.8550,992602,09/15/14,0.015000000000000568,0.015024038461539031
PPG,100.6600,100.8912,99.4750,99.8400,949746,09/12/14,-0.8699999999999903,-0.8638665475126506
PPG,100.4950,101.0650,100.2250,100.7100,900712,09/11/14,-0.5200000000000102,-0.5136817149066583
PPG,100.5900,101.3250,100.0600,101.2300,804276,09/10/14,0.5,0.4963764519011218
PPG,102.0600,102.1450,100.5532,100.7300,836774,09/09/14,-1.2299999999999898,-1.2063554335033246
PPG,101.8550,102.6850,101.6160,101.9600,656038,09/08/14,-0.020000000000010232,-0.0196116885663956
PPG,101.8750,102.0050,101.4750,101.9800,1.06 M,09/05/14,0.1700000000000017,0.16697770356546676
PPG,101.9150,102.5050,101.6100,101.8100,798942,09/04/14,0.045000000000001705,0.04421952537709596
PPG,102.8650,103.0600,101.6500,101.7650,1.17 M,09/03/14,-0.8299999999999983,-0.809006286856083
PPG,103.1950,103.2700,102.2850,102.5950,858036,09/02/14,-0.33500000000000796,-0.32546390750996596
PPG,102.9700,103.1000,102.6050,102.9300,777086,08/29/14,0.21000000000000796,0.20443925233645635
PPG,102.3450,103.0600,102.1805,102.7200,758012,08/28/14,0.09999999999999432,0.09744689144415739
PPG,103.0550,103.3250,102.2850,102.6200,859020,08/27/14,-0.6099999999999994,-0.5909134941393
PPG,103.4250,103.4250,102.7750,103.2300,871602,08/26/14,0.1150000000000091,0.11152596615430257
PPG,102.5550,103.1800,102.4600,103.1150,921004,08/25/14,0.8399999999999892,0.8213150818870586
PPG,102.5500,102.7250,102.2150,102.2750,644878,08/22/14,-0.26500000000000057,-0.25843573239711387
PPG,102.3500,103.0000,102.0400,102.5400,928904,08/21/14,0.5,0.49000392003136023
PPG,102.0000,102.3700,101.5950,102.0400,939810,08/20/14,-0.2749999999999915,-0.2687777940673327
PPG,102.0500,102.6450,101.9110,102.3150,814518,08/19/14,0.4299999999999926,0.4220444618933038
PPG,101.1500,101.9650,101.1100,101.8850,974512,08/18/14,0.75,0.7415830325802145
PPG,101.0300,101.8850,100.4350,101.1350,882340,08/15/14,0.3500000000000085,0.3472738998859042
PPG,100.7750,101.0500,100.4603,100.7850,867494,08/14/14,-0.21999999999999886,-0.2178109994554714
PPG,100.3600,101.0550,99.6000,101.0050,815576,08/13/14,1.2399999999999949,1.2429208640304665
PPG,99.6750,99.9950,99.2350,99.7650,557820,08/12/14,0.17499999999999716,0.17572045386082655
PPG,100.3250,100.5550,99.5800,99.5900,753764,08/11/14,-0.519999999999996,-0.5194286285086365
PPG,98.8950,100.1900,98.5100,100.1100,763322,08/08/14,1.4500000000000028,1.4696938982363703
PPG,99.8150,100.0000,98.5000,98.6600,1.04 M,08/07/14,-0.7849999999999966,-0.7893810649102485
PPG,98.9500,99.9050,98.8150,99.4450,1.19 M,08/06/14,0.3399999999999892,0.34307048080317765
PPG,99.6300,100.3475,98.8400,99.1050,1.06 M,08/05/14,-1.2049999999999983,-1.2012760442627837
PPG,99.0550,100.4950,99.0550,100.3100,990990,08/04/14,1.115000000000009,1.1240485911588378
PPG,98.4900,99.6200,98.2500,99.1950,1.41 M,08/01/14,0.014999999999986358,0.015124016938885215
PPG,101.9100,101.9100,99.1700,99.1800,1.59 M,07/31/14,-3.0349999999999966,-2.969231521792297
PPG,102.6250,103.3350,101.8000,102.2150,1.27 M,07/30/14,-0.28000000000000114,-0.2731840577589162
PPG,104.2500,104.2850,102.4550,102.4950,1.43 M,07/29/14,-1.8399999999999892,-1.7635501030334877
PPG,104.6400,104.8200,103.7750,104.3350,959992,07/28/14,-0.10000000000000853,-0.09575333939771966
PPG,105.0000,105.2500,104.2650,104.4350,629478,07/25/14,-0.5750000000000028,-0.5475668983906321
PPG,105.0000,105.6600,104.7100,105.0100,914544,07/24/14,-0.14499999999999602,-0.1378916837050031
PPG,105.0850,105.8300,104.8650,105.1550,1.48 M,07/23/14,0.09999999999999432,0.09518823473418143
PPG,104.6400,105.5450,104.4750,105.0550,1.16 M,07/22/14,0.6800000000000068,0.6514970059880305
PPG,104.2950,104.9050,104.1100,104.3750,1.38 M,07/21/14,-0.4000000000000057,-0.3817704605106234
PPG,104.1000,105.2500,103.9800,104.7750,1.40 M,07/18/14,0.9250000000000114,0.8907077515647679
PPG,102.5100,104.8750,102.5100,103.8500,1.89 M,07/17/14,0.9549999999999983,0.9281306185917667
PPG,103.3750,103.5950,102.4750,102.8950,2.04 M,07/16/14,0.11499999999999488,0.11188947266004562
PPG,104.3600,104.7450,102.6900,102.7800,1.51 M,07/15/14,-1.2150000000000034,-1.168325400259631
PPG,104.2450,104.4700,103.9550,103.9950,631270,07/14/14,-0.01999999999999602,-0.019227995962117023
PPG,103.5200,104.1000,102.8950,104.0150,701112,07/11/14,0.3200000000000074,0.30859732870438056
PPG,102.8250,103.9050,102.5000,103.6950,1.19 M,07/10/14,-0.2150000000000034,-0.20690982581080108
PPG,103.9000,104.0500,103.1900,103.9100,849340,07/09/14,0.5099999999999909,0.4932301740812291
PPG,103.9500,104.4300,103.3450,103.4000,960070,07/08/14,-0.789999999999992,-0.7582301564449487
PPG,104.5000,104.5300,103.6551,104.1900,1.24 M,07/07/14,-0.8900000000000006,-0.8469737342976785
PPG,104.3450,105.1800,104.1900,105.0800,577196,07/03/14,0.9249999999999972,0.888099467140317
PPG,104.2850,104.7400,103.9700,104.1550,925572,07/02/14,-0.2750000000000057,-0.26333429091257843
PPG,105.1100,105.4950,104.4150,104.4300,1.36 M,07/01/14,-0.644999999999996,-0.6138472519628798
PPG,105.9650,106.5050,104.3000,105.0750,2.92 M,06/30/14,3.049999999999997,2.9894633668218544
PPG,100.8050,102.1000,100.8000,102.0250,1.47 M,06/27/14,0.7349999999999994,0.7256392536281957
PPG,102.3650,102.3850,100.9550,101.2900,955292,06/26/14,-0.9449999999999932,-0.9243409791167342
PPG,101.7100,102.9225,101.7100,102.2350,1.23 M,06/25/14,0.7199999999999989,0.7092547899325211
PPG,101.8000,102.7450,101.2605,101.5150,1.05 M,06/24/14,-0.6700000000000017,-0.6556735332974524
PPG,102.4400,102.5350,101.8500,102.1850,599898,06/23/14,-0.09999999999999432,-0.09776604585226994
PPG,101.9150,102.7300,101.6400,102.2850,1.51 M,06/20/14,0.6749999999999972,0.6643046944198377
PPG,101.7050,102.0250,101.4875,101.6100,850130,06/19/14,-0.18500000000000227,-0.18173780637556095
PPG,101.1250,102.0000,100.6351,101.7950,1.12 M,06/18/14,0.5400000000000063,0.5333069971853304
PPG,101.2600,102.0600,101.0225,101.2550,725668,06/17/14,-0.25500000000000966,-0.25120677765738314
PPG,101.8750,102.1250,100.9050,101.5100,860912,06/16/14,-0.625,-0.6119351838253292
PPG,101.9150,102.3750,101.6050,102.1350,504108,06/13/14,0.34499999999999886,0.3389330975537861
PPG,102.6850,102.8550,101.6750,101.7900,1.28 M,06/12/14,-1.009999999999991,-0.982490272373532
PPG,102.2500,102.9600,102.1460,102.8000,763360,06/11/14,-0.10000000000000853,-0.09718172983479934
PPG,102.2000,102.9450,101.6300,102.9000,834482,06/10/14,0.34499999999999886,0.33640485593096275
PPG,102.3150,102.8250,102.1800,102.5550,840382,06/09/14,0.09000000000000341,0.08783487044356943
PPG,102.1200,102.9000,102.0050,102.4650,873764,06/06/14,0.8900000000000006,0.8761998523258682
PPG,101.7900,101.8950,100.5500,101.5750,986216,06/05/14,-0.355000000000004,-0.3482782301579554
PPG,100.8150,102.3750,100.0350,101.9300,1.57 M,06/04/14,1.0700000000000074,1.0608764624231681
PPG,100.7050,101.1500,100.4650,100.8600,832148,06/03/14,-0.3050000000000068,-0.30148766866011645
PPG,100.9050,101.5250,100.4800,101.1650,615454,06/02/14,0.35999999999999943,0.35712514260205286
PPG,100.4650,101.4400,100.0700,100.8050,1.08 M,05/30/14,0.3050000000000068,0.3034825870646834
PPG,100.2150,100.5000,99.0094,100.5000,1.04 M,05/29/14,0.375,0.37453183520599254
PPG,99.2500,100.4600,98.9750,100.1250,1.45 M,05/28/14,1.0649999999999977,1.0751059963658365
PPG,99.7500,99.8550,98.9150,99.0600,1.36 M,05/27/14,-0.37000000000000455,-0.3721210902142256
PPG,98.1350,99.5150,98.1350,99.4300,605160,05/23/14,1.2550000000000097,1.2783295136236412
PPG,98.5050,99.0200,98.1500,98.1750,691354,05/22/14,-0.4099999999999966,-0.4158847694882554
PPG,98.0100,98.9462,97.8600,98.5850,1.19 M,05/21/14,0.7399999999999949,0.7562982267872603
PPG,98.1400,98.6200,97.7600,97.8450,1.54 M,05/20/14,-0.17499999999999716,-0.1785349928585974
PPG,97.9650,99.2340,97.6775,98.0200,986330,05/19/14,0.3399999999999892,0.348075348075337
PPG,97.4150,97.7900,96.4800,97.6800,1.47 M,05/16/14,0.3650000000000091,0.37507064686842634
PPG,98.1500,98.2250,96.5000,97.3150,933714,05/15/14,-0.9650000000000034,-0.9818884818884853
PPG,98.7950,99.2050,98.1650,98.2800,866178,05/14/14,-0.5849999999999937,-0.5917159763313546
PPG,99.6500,99.7500,98.7800,98.8650,950068,05/13/14,-0.8400000000000034,-0.8424853317286028
PPG,98.9150,99.8250,98.3600,99.7050,688840,05/12/14,1.394999999999996,1.418980775099172
PPG,98.1250,98.4200,97.4050,98.3100,1.00 M,05/09/14,0.1700000000000017,0.17322192785816354
PPG,98.8100,99.4400,97.4850,98.1400,1.20 M,05/08/14,-1.230000000000004,-1.2377981282077126
PPG,98.1600,99.4500,97.5000,99.3700,1.62 M,05/07/14,1.6350000000000051,1.6728909807131582
PPG,97.3650,98.2450,96.5050,97.7350,1.24 M,05/06/14,-0.20999999999999375,-0.21440604420847797
PPG,97.4300,98.1050,96.7925,97.9450,888036,05/05/14,0.35499999999998977,0.363766779383123
PPG,96.2050,97.7850,96.0900,97.5900,1.52 M,05/02/14,1.2700000000000102,1.318521594684396
PPG,96.5750,97.1050,96.1250,96.3200,789074,05/01/14,-0.4900000000000091,-0.5061460592914049
PPG,96.1450,97.0000,96.1300,96.8100,1.12 M,04/30/14,0.3100000000000023,0.32124352331606454
PPG,96.1750,96.7250,95.5920,96.5000,987392,04/29/14,0.7650000000000006,0.7990807959471463
PPG,96.8850,97.2850,95.0350,95.7350,1.58 M,04/28/14,-0.7549999999999955,-0.7824645040936838
PPG,96.9350,97.1500,95.8800,96.4900,1.43 M,04/25/14,-0.7650000000000006,-0.786591949000052
PPG,98.3150,98.4700,97.1350,97.2550,1.54 M,04/24/14,-0.8950000000000102,-0.9118695873662864
PPG,98.3300,99.0600,97.9642,98.1500,1.54 M,04/23/14,-0.030000000000001137,-0.03055612140965689
PPG,98.4350,98.9950,98.1400,98.1800,1.78 M,04/22/14,-0.0899999999999892,-0.09158441029814715
PPG,99.0500,99.7100,98.1950,98.2700,2.52 M,04/21/14,-1.460000000000008,-1.4639526722149883
PPG,99.9950,100.0000,98.2400,99.7300,3.59 M,04/17/14,3.9150000000000063,4.085999060689878
PPG,95.0000,95.9650,94.2450,95.8150,2.03 M,04/16/14,1.5499999999999972,1.6443006418076669
PPG,94.3200,94.5775,92.5900,94.2650,1.88 M,04/15/14,-0.015000000000000568,-0.015910055154858473
PPG,94.5800,94.8500,93.5700,94.2800,1.30 M,04/14/14,0.37000000000000455,0.3939942498136562
PPG,94.7000,95.3850,93.8150,93.9100,1.37 M,04/11/14,-1.0700000000000074,-1.1265529585175904
PPG,97.9900,98.0955,94.9450,94.9800,1.85 M,04/10/14,-2.864999999999995,-2.928100567223665
PPG,96.3450,97.9850,95.8550,97.8450,1.43 M,04/09/14,1.5949999999999989,1.657142857142856
PPG,96.4400,97.0650,95.1500,96.2500,1.86 M,04/08/14,-0.2849999999999966,-0.29522970943180876
PPG,98.6350,98.8675,96.1450,96.5350,2.33 M,04/07/14,-2.344999999999999,-2.371561488673138
PPG,100.2350,100.7950,98.3551,98.8800,2.84 M,04/04/14,0.19499999999999318,0.19759841921263938
PPG,98.6250,100.0250,98.0775,98.6850,1.22 M,04/03/14,0.05500000000000682,0.05576396633884906
PPG,98.0850,98.9950,97.7300,98.6300,1.46 M,04/02/14,0.3100000000000023,0.3152969894222969
PPG,97.5400,98.3600,96.6900,98.3200,1.09 M,04/01/14,1.5899999999999892,1.6437506461283875
PPG,96.3600,97.4900,96.0050,96.7300,1.63 M,03/31/14,1.3250000000000028,1.3888160997851295
PPG,95.0150,95.8550,94.7050,95.4050,1.01 M,03/28/14,0.6400000000000006,0.6753548250936533
PPG,95.2150,95.4800,94.0172,94.7650,1.20 M,03/27/14,-0.4399999999999977,-0.4621606008087787
PPG,96.7050,97.0000,95.2050,95.2050,1.49 M,03/26/14,-1.230000000000004,-1.2754705241872806
PPG,97.0700,97.5450,96.2050,96.4350,1.56 M,03/25/14,-0.1700000000000017,-0.1759743284509101
PPG,98.0500,98.2000,96.1252,96.6050,1.01 M,03/24/14,-0.9549999999999983,-0.9788847888478867
PPG,98.2350,99.0700,97.2700,97.5600,3.02 M,03/21/14,0.18999999999999773,0.19513197083290307
PPG,97.2400,98.0650,97.0050,97.3700,1.83 M,03/20/14,-0.20999999999999375,-0.2152080344332791
PPG,99.4450,99.6100,97.2250,97.5800,1.50 M,03/19/14,-1.4000000000000057,-1.4144271570014202
PPG,98.2350,99.4050,98.2200,98.9800,1.22 M,03/18/14,1.0,1.0206164523372117
PPG,97.5950,98.5950,97.3713,97.9800,1.67 M,03/17/14,0.6899999999999977,0.709219858156026
PPG,97.2950,98.0600,97.1262,97.2900,1.21 M,03/14/14,-0.16499999999999204,-0.1693089118054405
PPG,99.1150,99.4000,97.2550,97.4550,1.02 M,03/13/14,-1.1500000000000057,-1.1662694589523914
PPG,98.6050,99.0125,98.1000,98.6050,1.61 M,03/12/14,-0.14999999999999147,-0.15189104349146015
PPG,100.5000,100.5000,98.7250,98.7550,1.77 M,03/11/14,-1.3950000000000102,-1.3929106340489368
PPG,99.6600,100.4150,99.3200,100.1500,979180,03/10/14,0.1150000000000091,0.1149597640825802
PPG,100.1700,100.6200,99.6200,100.0350,1.54 M,03/07/14,-0.03499999999999659,-0.03497551713799999
PPG,99.8800,100.6450,99.7225,100.0700,979136,03/06/14,0.29999999999999716,0.30069159065851175
PPG,100.0000,100.4788,99.5550,99.7700,1.19 M,03/05/14,-0.32500000000000284,-0.32469154303412046
PPG,99.8750,100.2050,99.3400,100.0950,1.35 M,03/04/14,1.5649999999999977,1.5883487262762588
PPG,96.6150,99.1700,96.6150,98.5300,1.62 M,03/03/14,-0.37999999999999545,-0.3841876453341376
PPG,97.0200,99.0750,96.8750,98.9100,2.88 M,02/28/14,2.0649999999999977,2.1322732200939623
PPG,96.4000,97.3350,95.6001,96.8450,1.59 M,02/27/14,0.28000000000000114,0.2899601304820599
PPG,95.2000,97.0600,95.1250,96.5650,1.78 M,02/26/14,1.1799999999999926,1.2370917859202102
PPG,94.1550,96.0000,94.1500,95.3850,1.68 M,02/25/14,1.125,1.1935073201782305
PPG,94.7450,95.4950,94.2500,94.2600,1.70 M,02/24/14,-0.6749999999999972,-0.7110127982303651
PPG,94.3850,95.4025,94.3500,94.9350,2.26 M,02/21/14,0.5600000000000023,0.593377483443711
PPG,93.5000,94.4400,93.0450,94.3750,1.69 M,02/20/14,0.8449999999999989,0.9034534373997636
PPG,92.8250,94.3650,92.7950,93.5300,1.72 M,02/19/14,0.23499999999999943,0.25188916876574247
PPG,94.2300,94.2500,93.1100,93.2950,2.62 M,02/18/14,-1.1550000000000011,-1.222869242985708
PPG,93.6150,94.7400,93.5476,94.4500,1.42 M,02/14/14,0.835000000000008,0.8919510762164269
PPG,92.5000,93.9200,92.0800,93.6150,1.37 M,02/13/14,0.7349999999999994,0.7913436692506455
PPG,93.0150,93.5350,92.6250,92.8800,1.36 M,02/12/14,0.29999999999999716,0.32404406999351604
PPG,92.2050,93.3100,91.7550,92.5800,1.99 M,02/11/14,0.6149999999999949,0.6687326700375087
PPG,91.0650,92.4550,90.8650,91.9650,2.01 M,02/10/14,0.6950000000000074,0.7614769365618576
PPG,90.3000,91.2750,90.2500,91.2700,1.63 M,02/07/14,1.8100000000000023,2.023250614799913
PPG,88.7150,89.6550,88.4120,89.4600,1.66 M,02/06/14,0.8499999999999943,0.9592596772373257
PPG,87.9450,88.8150,86.9125,88.6100,2.26 M,02/05/14,-0.010000000000005116,-0.011284134506889094
PPG,88.8650,89.7200,88.3975,88.6200,1.94 M,02/04/14,0.18500000000000227,0.20919319274043338
PPG,91.2550,91.6650,88.3350,88.4350,2.57 M,02/03/14,-2.7450000000000045,-3.0105286246984035
PPG,91.1050,92.2500,90.7150,91.1800,2.72 M,01/31/14,-1.154999999999987,-1.2508799480153647
PPG,91.8500,92.8245,91.4350,92.3350,1.19 M,01/30/14,0.7349999999999994,0.8024017467248903
PPG,91.0250,92.4350,90.8300,91.6000,1.59 M,01/29/14,0.3849999999999909,0.42207970180342147
PPG,91.5450,92.3300,90.8590,91.2150,2.03 M,01/28/14,-0.37999999999999545,-0.4148698073038872
PPG,91.0000,92.2450,90.2150,91.5950,2.78 M,01/27/14,0.7950000000000017,0.8755506607929534
PPG,92.6150,92.8500,90.7950,90.8000,2.49 M,01/24/14,-2.644999999999996,-2.830542030071161
PPG,93.3550,94.0200,92.8850,93.4450,2.46 M,01/23/14,-0.13500000000000512,-0.14426159435777422
PPG,95.0750,95.3450,93.2950,93.5800,2.84 M,01/22/14,-1.4200000000000017,-1.494736842105265
PPG,95.1650,95.7699,94.5550,95.0000,2.34 M,01/21/14,0.2600000000000051,0.27443529660122984
PPG,94.2500,96.1150,94.2500,94.7400,3.66 M,01/17/14,0.9050000000000011,0.964458890605852
PPG,91.2850,94.9470,91.2850,93.8350,3.29 M,01/16/14,-1.5150000000000006,-1.5888830624016788
PPG,95.6350,95.7750,95.2150,95.3500,2.14 M,01/15/14,-0.09499999999999886,-0.09953376290009835
PPG,94.2850,95.5050,93.7850,95.4450,1.92 M,01/14/14,1.5649999999999977,1.6670217298679142
PPG,94.9650,95.6750,93.5950,93.8800,2.61 M,01/13/14,-1.4100000000000108,-1.479693567005993
PPG,95.2850,95.7700,94.8150,95.2900,2.09 M,01/10/14,0.22500000000000853,0.23668016620208124
PPG,94.8550,95.6150,94.6250,95.0650,2.37 M,01/09/14,0.3299999999999983,0.3483401066131823
PPG,94.2750,95.0975,93.7050,94.7350,2.01 M,01/08/14,0.5949999999999989,0.6320373911196079
PPG,93.8000,94.5700,93.0100,94.1400,2.33 M,01/07/14,0.37999999999999545,0.40529010238907365
PPG,94.8150,94.9950,93.4650,93.7600,1.56 M,01/06/14,-0.9449999999999932,-0.997835383559467
PPG,94.7000,95.0500,94.4400,94.7050,814210,01/03/14,0.23499999999999943,0.24875621890547203
PPG,94.7500,95.1450,94.2650,94.4700,1.37 M,01/02/14,-0.35999999999999943,-0.3796267004112617
PPG,94.3850,95.0350,94.1300,94.8300,1.04 M,12/31/13,0.5949999999999989,0.6314002228471363
PPG,93.9100,94.4150,93.5500,94.2350,1.02 M,12/30/13,0.34499999999999886,0.36745127276600154
PPG,94.2900,94.2900,93.6250,93.8900,782986,12/27/13,-0.15000000000000568,-0.15950659293918085
PPG,93.9200,94.1850,93.6250,94.0400,609764,12/26/13,0.25,0.2665529374133703
PPG,92.8050,93.8000,92.8050,93.7900,373038,12/24/13,1.0400000000000063,1.1212938005390902
PPG,93.7000,93.7100,92.5400,92.7500,1.37 M,12/23/13,-0.5600000000000023,-0.6001500375093798
PPG,92.3850,93.6750,92.3850,93.3100,4.53 M,12/20/13,0.6599999999999966,0.7123583378305414
PPG,92.4300,92.9049,92.1750,92.6500,1.44 M,12/19/13,0.0350000000000108,0.03779085461319527
PPG,91.8800,92.8150,90.4501,92.6150,1.92 M,12/18/13,0.8099999999999881,0.8823048853548151
PPG,91.3900,92.0000,90.9550,91.8050,1.79 M,12/17/13,0.605000000000004,0.6633771929824605
PPG,91.4500,92.1500,90.7500,91.2000,1.91 M,12/16/13,-0.25499999999999545,-0.27882565195997533
PPG,91.9650,92.5700,91.1450,91.4550,1.35 M,12/13/13,-0.5049999999999955,-0.5491518051326615
PPG,91.1100,92.2950,91.0250,91.9600,1.80 M,12/12/13,0.7849999999999966,0.8609816287359436
PPG,93.5450,93.6150,90.7450,91.1750,2.17 M,12/11/13,-2.5,-2.6688017080330932
PPG,93.3550,94.0000,92.9525,93.6750,1.10 M,12/10/13,0.3199999999999932,0.342777569492789
PPG,94.0950,94.5000,93.0150,93.3550,1.42 M,12/09/13,-0.5649999999999977,-0.6015758091993162
PPG,92.5000,93.9800,91.4800,93.9200,1.89 M,12/06/13,3.030000000000001,3.3337000770161747
PPG,91.0000,91.6450,90.4250,90.8900,1.16 M,12/05/13,-0.5849999999999937,-0.6395189942607202
PPG,90.8550,92.3000,90.8550,91.4750,1.93 M,12/04/13,0.644999999999996,0.7101178024881604
PPG,91.1600,91.6150,90.1600,90.8300,1.34 M,12/03/13,-1.0,-1.0889687465969726
PPG,92.1700,92.7650,91.6750,91.8300,1.02 M,12/02/13,-0.20000000000000284,-0.21732043898728984
PPG,92.5000,92.7850,91.8750,92.0300,394450,11/29/13,-0.23999999999999488,-0.26010621003575907
PPG,92.6000,92.7750,92.0300,92.2700,909492,11/27/13,-0.2950000000000017,-0.31869497110139006
PPG,92.0900,92.9950,91.8801,92.5650,966430,11/26/13,0.46999999999999886,0.5103425810304565
PPG,91.9100,92.7700,91.9100,92.0950,974366,11/25/13,0.2049999999999983,0.22309282838175895
PPG,91.7950,92.1150,91.2750,91.8900,1.35 M,11/22/13,0.23000000000000398,0.2509273401701985
PPG,91.6550,91.9600,91.2250,91.6600,1.33 M,11/21/13,0.5600000000000023,0.6147091108671815
PPG,92.3250,92.3500,90.9005,91.1000,1.34 M,11/20/13,-1.2800000000000011,-1.3855812946525234
PPG,92.1150,92.7500,92.0250,92.3800,625616,11/19/13,0.05499999999999261,0.0595721635526592
PPG,92.4850,92.7675,92.0550,92.3250,924860,11/18/13,-0.125,-0.1352082206598161
PPG,93.1900,93.4450,92.3350,92.4500,1.37 M,11/15/13,-0.3400000000000034,-0.36641879512878905
PPG,92.5000,92.8040,91.8600,92.7900,1.03 M,11/14/13,0.480000000000004,0.5199870003249961
PPG,90.8400,92.4500,90.7850,92.3100,1.96 M,11/13/13,1.0550000000000068,1.1561010355597028
PPG,91.0900,91.4950,90.6875,91.2550,1.23 M,11/12/13,0.17499999999999716,0.19213877909529772
PPG,90.8650,91.5750,90.7900,91.0800,1.50 M,11/11/13,0.2950000000000017,0.324943547942944
PPG,90.0000,90.8950,89.6900,90.7850,2.21 M,11/08/13,0.9650000000000034,1.0743709641505272
PPG,91.6450,92.1600,89.6760,89.8200,1.77 M,11/07/13,-1.5800000000000125,-1.7286652078774754
PPG,91.1700,92.4200,91.1700,91.4000,1.73 M,11/06/13,-0.2599999999999909,-0.2836569932358618
PPG,91.4700,92.2300,90.8050,91.6600,1.10 M,11/05/13,-0.07000000000000739,-0.0763109124604899
PPG,91.7500,91.8000,90.8350,91.7300,1.22 M,11/04/13,0.355000000000004,0.38850889192886895
PPG,91.4000,91.6950,90.8551,91.3750,1.47 M,11/01/13,0.08499999999999375,0.09310986964617564
PPG,90.8700,92.2825,90.7750,91.2900,1.84 M,10/31/13,0.46000000000000796,0.5064406033249014
PPG,93.1400,93.6400,89.5650,90.8300,2.38 M,10/30/13,-1.9249999999999972,-2.0753598188776854
PPG,90.6000,92.8400,90.6000,92.7550,1.65 M,10/29/13,2.3100000000000023,2.554038365857706
PPG,90.9650,91.0350,90.1650,90.4450,1.00 M,10/28/13,-0.5150000000000006,-0.5661829375549698
PPG,89.7300,90.9750,89.5450,90.9600,1.14 M,10/25/13,1.2299999999999898,1.3707790036776883
PPG,89.3750,89.8050,88.9750,89.7300,723528,10/24/13,0.5050000000000097,0.5659848697114146
PPG,90.1400,90.2200,89.1600,89.2250,1.44 M,10/23/13,-0.835000000000008,-0.9271596713302331
PPG,88.9250,90.3650,88.2550,90.0600,1.82 M,10/22/13,1.7549999999999955,1.9874299303550143
PPG,87.6500,88.5100,87.2250,88.3050,1.69 M,10/21/13,0.4200000000000017,0.4778972520908024
PPG,87.6800,88.2900,86.7750,87.8850,2.71 M,10/18/13,0.6500000000000057,0.7451137731415208
PPG,84.8750,87.3700,83.6200,87.2350,3.07 M,10/17/13,4.125,4.96330164841776
PPG,83.6000,84.0050,82.7800,83.1100,1.92 M,10/16/13,0.37000000000000455,0.4471839497220263
PPG,83.0600,83.3150,82.4440,82.7400,911614,10/15/13,-0.32500000000000284,-0.39125985673870206
PPG,82.7300,83.2500,82.3400,83.0650,1.24 M,10/14/13,-0.3100000000000023,-0.37181409295352597
PPG,82.4350,83.3950,82.2825,83.3750,1.82 M,10/11/13,1.0100000000000051,1.2262490135373099
PPG,82.3500,82.9750,81.9000,82.3650,2.30 M,10/10/13,1.125,1.3847858197932055
PPG,81.4900,82.1100,80.3800,81.2400,2.23 M,10/09/13,-0.16500000000000625,-0.2026902524415039
PPG,83.9550,84.0050,81.3500,81.4050,1.74 M,10/08/13,-2.549999999999997,-3.0373414329104844
PPG,84.3850,85.1000,83.7555,83.9550,1.84 M,10/07/13,-1.4950000000000045,-1.7495611468695196
PPG,83.0700,85.5000,82.9850,85.4500,1.85 M,10/04/13,2.2049999999999983,2.64880773620037
PPG,83.0950,83.4150,82.5300,83.2450,1.54 M,10/03/13,-0.07499999999998863,-0.09001440230435506
PPG,82.7650,83.3200,82.4300,83.3200,1.33 M,10/02/13,-0.08500000000000796,-0.10191235537438757
PPG,83.5650,83.9050,83.0500,83.4050,1.19 M,10/01/13,-0.125,-0.1496468334730037
PPG,81.8900,83.5650,81.7605,83.5300,1.51 M,09/30/13,0.894999999999996,1.0830761783747758
PPG,82.7200,83.1550,82.4400,82.6350,1.31 M,09/27/13,-0.6899999999999977,-0.8280828082808254
PPG,82.5500,83.4800,82.3950,83.3250,913698,09/26/13,1.0050000000000097,1.2208454810495746
PPG,81.9700,82.6700,81.7000,82.3200,1.78 M,09/25/13,0.5849999999999937,0.7157276564507172
PPG,81.8400,82.5900,81.6050,81.7350,1.59 M,09/24/13,0.025000000000005684,0.030596010280266414
PPG,83.0800,83.0800,81.6650,81.7100,1.88 M,09/23/13,-1.4300000000000068,-1.719990377676217
PPG,83.9950,86.1050,83.0800,83.1400,1.42 M,09/20/13,-0.855000000000004,-1.0179177331984093
PPG,83.8950,84.4850,83.6000,83.9950,920532,09/19/13,0.09000000000000341,0.10726416780883548
PPG,82.3250,83.9900,81.8100,83.9050,1.11 M,09/18/13,1.2249999999999943,1.4816158684083143
PPG,82.6000,82.7650,82.1200,82.6800,878444,09/17/13,0.0800000000000125,0.0968523002421459
PPG,82.6000,82.9450,82.1750,82.6000,859924,09/16/13,1.3799999999999955,1.6990888943609892
PPG,81.6550,81.9900,81.0850,81.2200,913776,09/13/13,-0.2150000000000034,-0.2640142444894743
PPG,82.0950,82.7600,81.1550,81.4350,891288,09/12/13,-0.7749999999999915,-0.9427076997932022
PPG,81.7900,82.3550,81.5700,82.2100,805994,09/11/13,0.35499999999998977,0.433693726711856
PPG,81.4150,81.8550,81.1050,81.8550,1.24 M,09/10/13,1.0350000000000108,1.2806236080178308
PPG,79.7700,80.9800,79.7700,80.8200,834684,09/09/13,1.1949999999999932,1.5007849293563493
PPG,80.4900,80.5900,78.7900,79.6250,1.29 M,09/06/13,-0.6599999999999966,-0.8220713707417283
PPG,79.4250,80.6700,79.1700,80.2850,639016,09/05/13,0.8149999999999977,1.0255442305272402
PPG,78.4500,79.7150,78.1750,79.4700,1.13 M,09/04/13,0.8649999999999949,1.1004389033776412
PPG,79.2700,79.9600,78.2350,78.6050,992222,09/03/13,0.5,0.6401638819537802
PPG,78.2700,78.6250,77.8500,78.1050,748464,08/30/13,0.010000000000005116,0.012804917088168406
PPG,77.6450,78.6200,77.6350,78.0950,1.41 M,08/29/13,0.2150000000000034,0.27606574216744145
PPG,78.4700,78.8500,77.8000,77.8800,1.64 M,08/28/13,-1.0,-1.2677484787018256
PPG,79.1400,79.5000,78.5000,78.8800,1.08 M,08/27/13,-1.2550000000000097,-1.5661071941099514
PPG,81.3200,81.4250,79.8800,80.1350,860244,08/26/13,-0.9849999999999994,-1.2142504930966462
PPG,80.2300,81.2100,79.3450,81.1200,1.40 M,08/23/13,1.0450000000000017,1.3050265376209824
PPG,79.7150,80.2400,78.9300,80.0750,660568,08/22/13,0.519999999999996,0.6536358494123512
PPG,79.4050,80.2800,78.8988,79.5550,887324,08/21/13,0.07000000000000739,0.08806693086746857
PPG,78.4750,80.0260,78.4050,79.4850,1.61 M,08/20/13,1.0799999999999983,1.37746317199158
PPG,79.0750,79.6650,78.2600,78.4050,1.05 M,08/19/13,-0.8900000000000006,-1.1223910713159726
PPG,79.0300,79.6900,78.7850,79.2950,1.38 M,08/16/13,-0.09000000000000341,-0.11337154374252492
PPG,80.5000,80.5000,79.1450,79.3850,1.16 M,08/15/13,-1.7999999999999972,-2.2171583420582586
PPG,81.4800,81.7150,80.9800,81.1850,1.33 M,08/14/13,-0.19499999999999318,-0.23961661341852197
PPG,80.4350,81.6500,80.2025,81.3800,1.33 M,08/13/13,0.7099999999999937,0.8801289202925421
PPG,80.5100,80.9550,80.1360,80.6700,1.50 M,08/12/13,-0.17499999999999716,-0.21646360319128846
PPG,80.7350,81.3630,80.4050,80.8450,825730,08/09/13,-0.07000000000000739,-0.08651053574739836
PPG,81.0150,81.3600,80.1925,80.9150,1.59 M,08/08/13,0.37000000000000455,0.4593705382084605
PPG,80.4700,80.9650,80.0500,80.5450,1.05 M,08/07/13,-0.16499999999999204,-0.2044356337504548
PPG,80.7850,80.8230,79.7700,80.7100,1.32 M,08/06/13,-0.23499999999999943,-0.290320588053616
PPG,80.8100,81.2700,80.3400,80.9450,1.45 M,08/05/13,-0.23500000000001364,-0.28948016752896477
PPG,81.2450,81.7700,80.2250,81.1800,999602,08/02/13,-0.19999999999998863,-0.24576062914719665
PPG,78.1300,82.8200,78.1300,81.3800,965432,08/01/13,1.1599999999999966,1.4460234355522272
PPG,80.7500,81.1300,80.0050,80.2200,1.26 M,07/31/13,-0.3050000000000068,-0.3787643588947616
PPG,80.5450,80.8200,80.0000,80.5250,1.31 M,07/30/13,-0.05999999999998806,-0.07445554383568663
PPG,79.1150,80.7400,78.7100,80.5850,1.55 M,07/29/13,2.029999999999987,2.584176691490022
PPG,79.2500,79.2500,78.1900,78.5550,1.04 M,07/26/13,-0.8099999999999881,-1.0206010206010057
PPG,78.5450,79.3950,78.4700,79.3650,1.13 M,07/25/13,0.8249999999999886,1.0504201680672123
PPG,79.7800,79.9350,78.0875,78.5400,1.70 M,07/24/13,-1.0249999999999915,-1.2882548859423006
PPG,80.3850,80.6700,79.4700,79.5650,1.34 M,07/23/13,-0.29999999999999716,-0.3756338821761688
PPG,79.5050,80.5650,79.4575,79.8650,2.02 M,07/22/13,0.2849999999999966,0.35813018346317743
PPG,80.0350,80.4700,79.5100,79.5800,1.76 M,07/19/13,-0.4200000000000017,-0.5250000000000021
PPG,78.3950,80.7350,78.0900,80.0000,2.74 M,07/18/13,1.5699999999999932,2.001785031238038
PPG,77.8200,78.4650,77.6900,78.4300,1.29 M,07/17/13,1.0100000000000051,1.3045724618961574
PPG,78.5200,78.5450,77.0675,77.4200,1.14 M,07/16/13,-1.0750000000000028,-1.3695139817822826
PPG,78.9900,79.0200,78.3550,78.4950,850474,07/15/13,-0.36999999999999034,-0.46915615291953383
PPG,78.9550,79.0650,78.0950,78.8650,1.58 M,07/12/13,-0.15000000000000568,-0.1898373726507697
PPG,79.5600,79.7550,78.5650,79.0150,1.77 M,07/11/13,0.9950000000000045,1.2753140220456352
PPG,78.2900,78.5000,77.6800,78.0200,1.16 M,07/10/13,-0.24500000000000455,-0.31303903405098643
PPG,77.2650,78.3950,76.5175,78.2650,1.72 M,07/09/13,1.6500000000000057,2.1536252692031663
PPG,76.6500,76.8250,75.6550,76.6150,1.20 M,07/08/13,0.40500000000000114,0.5314263220049877
PPG,75.2850,76.3500,75.2850,76.2100,1.29 M,07/05/13,1.414999999999992,1.8918376896851288
PPG,73.5700,74.9700,72.2900,74.7950,738444,07/03/13,0.25499999999999545,0.3420982023074798
PPG,73.9250,74.9100,73.8700,74.5400,1.40 M,07/02/13,0.3200000000000074,0.4311506332525026
PPG,73.5250,75.0950,73.2800,74.2200,1.36 M,07/01/13,1.0150000000000006,1.3865173143910943
PPG,73.9600,74.1200,73.0000,73.2050,4.67 M,06/28/13,-1.3100000000000023,-1.7580352949070688
PPG,75.0500,75.2600,74.1700,74.5150,1.56 M,06/27/13,0.015000000000000568,0.020134228187920225
PPG,74.3450,74.9800,73.4500,74.5000,1.52 M,06/26/13,0.5849999999999937,0.7914496380978066
PPG,74.5900,75.1175,73.3850,73.9150,1.30 M,06/25/13,0.5750000000000028,0.7840196345786785
PPG,74.4150,74.4350,72.6050,73.3400,1.54 M,06/24/13,-1.1099999999999994,-1.4909335124244452
PPG,75.9550,76.0200,73.8150,74.4500,2.09 M,06/21/13,-0.5900000000000034,-0.7862473347548019
PPG,76.1250,76.3800,74.8050,75.0400,2.13 M,06/20/13,-2.0449999999999875,-2.6529156126353866
PPG,78.1600,78.6100,77.0450,77.0850,1.00 M,06/19/13,-1.2000000000000028,-1.5328607012837745
PPG,78.0200,78.3750,77.5550,78.2850,1.03 M,06/18/13,0.22999999999998977,0.29466401896097594
PPG,77.5000,78.4700,77.1800,78.0550,1.12 M,06/17/13,1.1400000000000006,1.4821556263407665
PPG,77.1850,77.8600,76.5550,76.9150,919414,06/14/13,-0.7199999999999989,-0.9274167579055823
PPG,75.2300,77.9500,75.2300,77.6350,1.66 M,06/13/13,2.160000000000011,2.861874792977822
PPG,76.6750,76.8450,75.3400,75.4750,818594,06/12/13,-0.4750000000000085,-0.6254114549045536
PPG,75.8950,76.9150,75.5050,75.9500,881196,06/11/13,-1.1850000000000023,-1.536267582809363
PPG,77.9950,77.9950,76.5500,77.1350,636452,06/10/13,-0.32499999999998863,-0.41957139168601687
PPG,76.5450,77.6700,76.2600,77.4600,1.37 M,06/07/13,1.8249999999999886,2.412904078799482
PPG,74.5750,75.7900,74.5200,75.6350,888764,06/06/13,0.6400000000000006,0.8533902260150684
PPG,76.5300,76.7250,74.9650,74.9950,1.15 M,06/05/13,-1.7849999999999966,-2.3248241729617045
PPG,77.4450,78.1050,76.4237,76.7800,1.13 M,06/04/13,-0.789999999999992,-1.0184349619698236
PPG,77.2350,77.6450,76.1000,77.5700,1.32 M,06/03/13,0.7649999999999864,0.9960289043681874
PPG,77.8150,78.2700,76.8050,76.8050,1.10 M,05/31/13,-1.3499999999999943,-1.7273367027061535
PPG,78.6950,78.8150,77.8600,78.1550,809636,05/30/13,-0.394999999999996,-0.5028644175684227
PPG,78.1050,78.9600,77.7900,78.5500,767916,05/29/13,-0.1150000000000091,-0.1461895379139504
PPG,79.4450,79.7500,78.0400,78.6650,1.14 M,05/28/13,0.25,0.31881655295542943
PPG,77.8200,78.7150,77.1650,78.4150,1.10 M,05/24/13,-0.015000000000000568,-0.019125334693357858
PPG,77.7150,78.9490,77.1800,78.4300,1.12 M,05/23/13,-0.34499999999999886,-0.43795620437956057
PPG,79.4450,80.4150,78.2955,78.7750,1.29 M,05/22/13,-0.6949999999999932,-0.8745438530262907
PPG,78.7700,79.7150,78.5100,79.4700,1.41 M,05/21/13,0.9399999999999977,1.1969947790653224
PPG,79.1800,79.2375,77.9000,78.5300,1.29 M,05/20/13,-0.8900000000000006,-1.1206245278267446
PPG,78.3550,79.4450,77.9450,79.4200,1.15 M,05/17/13,1.644999999999996,2.1150755384120807
PPG,78.0350,78.7000,77.7000,77.7750,990944,05/16/13,-0.45999999999999375,-0.5879721352335832
PPG,78.0300,78.9250,77.7870,78.2350,1.65 M,05/15/13,-0.1700000000000017,-0.21682290670238086
PPG,76.7450,78.4300,76.6700,78.4050,1.25 M,05/14/13,1.7999999999999972,2.349716075974149
PPG,76.8250,76.9850,76.2151,76.6050,763392,05/13/13,-0.45999999999999375,-0.5968987218581636
PPG,76.8950,77.3000,76.5550,77.0650,1.08 M,05/10/13,0.10500000000000398,0.13643451143451663
PPG,77.3300,77.5649,76.7900,76.9600,1.77 M,05/09/13,-0.6099999999999994,-0.786386489622276
PPG,76.4800,77.5900,76.1900,77.5700,1.93 M,05/08/13,0.9599999999999937,1.2531001174781278
PPG,75.9400,76.6900,75.8900,76.6100,1.02 M,05/07/13,0.730000000000004,0.962045334739067
PPG,76.0650,76.0650,75.3050,75.8800,1.14 M,05/06/13,-0.2600000000000051,-0.3414762280010574
PPG,75.3000,76.2900,75.0050,76.1400,2.04 M,05/03/13,1.9000000000000057,2.559267241379318
PPG,72.9400,74.4400,72.6550,74.2400,1.65 M,05/02/13,1.6400000000000006,2.258953168044078
PPG,72.9100,73.5450,72.5550,72.6000,2.14 M,05/01/13,-0.9699999999999989,-1.3184722033437528
PPG,73.5500,73.6785,72.8155,73.5700,1.64 M,04/30/13,0.05999999999998806,0.08162154808867918
PPG,72.8200,73.6050,72.4400,73.5100,1.11 M,04/29/13,1.0450000000000017,1.442075484716762
PPG,73.3800,73.4250,72.1250,72.4650,1.14 M,04/26/13,-0.9899999999999949,-1.3477639371043426
PPG,73.0000,74.2800,72.7300,73.4550,1.94 M,04/25/13,0.9650000000000034,1.3312180990481495
PPG,72.5000,72.9250,72.1750,72.4900,1.78 M,04/24/13,0.0899999999999892,0.12430939226517844
PPG,71.9750,72.4400,71.5600,72.4000,1.59 M,04/23/13,0.625,0.8707767328456983
PPG,70.8100,72.0250,70.4050,71.7750,2.21 M,04/22/13,0.980000000000004,1.3842785507451147
PPG,70.3300,71.1150,69.8000,70.7950,3.61 M,04/19/13,0.46999999999999886,0.6683256309989318
PPG,67.8300,71.0000,67.8300,70.3250,4.78 M,04/18/13,4.125,6.231117824773413
PPG,66.6950,66.9880,65.8750,66.2000,2.20 M,04/17/13,-1.0750000000000028,-1.5979189892233412
PPG,66.3550,67.3350,66.0550,67.2750,2.62 M,04/16/13,1.5550000000000068,2.366098600121739
PPG,67.5850,67.7300,65.6950,65.7200,2.48 M,04/15/13,-2.405000000000001,-3.5302752293578
PPG,68.4750,68.7200,67.7600,68.1250,1.38 M,04/12/13,-0.6800000000000068,-0.9883002688758182
PPG,67.3450,69.0650,67.3100,68.8050,2.17 M,04/11/13,1.4750000000000085,2.1907025100252615
PPG,66.5550,67.4400,66.4100,67.3300,2.08 M,04/10/13,1.0049999999999955,1.5152657369016138
PPG,65.7600,66.4750,65.6900,66.3250,2.56 M,04/09/13,0.6000000000000085,0.9128946367440222
PPG,65.8000,66.0300,65.2800,65.7250,2.03 M,04/08/13,-0.14000000000000057,-0.2125559857283847
PPG,65.8650,66.3750,65.3150,65.8650,1.77 M,04/05/13,-1.085000000000008,-1.6206123973114384
PPG,66.5200,67.4450,66.2500,66.9500,1.83 M,04/04/13,0.5900000000000034,0.8890898131404512
PPG,67.0250,67.0250,66.1000,66.3600,2.74 M,04/03/13,-0.48499999999999943,-0.725559129329044
PPG,67.3800,67.4950,66.5950,66.8450,1.68 M,04/02/13,-0.23499999999999943,-0.3503279666070355
PPG,66.8250,67.2350,66.6000,67.0800,3.32 M,04/01/13,0.10999999999999943,0.1642526504404949
PPG,66.6650,67.0450,66.4350,66.9700,2.11 M,03/28/13,0.2600000000000051,0.38974666466797353
PPG,66.5350,66.8475,65.9755,66.7100,1.87 M,03/27/13,-0.3100000000000023,-0.46254849298717143
PPG,67.3450,67.9500,66.9150,67.0200,2.39 M,03/26/13,0.07500000000000284,0.11203226529240846
PPG,68.1550,68.2350,66.3200,66.9450,2.31 M,03/25/13,-1.0400000000000063,-1.5297492093844323
PPG,68.4950,69.1200,67.8000,67.9850,1.47 M,03/22/13,-0.6599999999999966,-0.9614684245028722
PPG,69.5650,70.0300,68.6350,68.6450,2.03 M,03/21/13,-1.8599999999999994,-2.638110772285653
PPG,70.6800,71.0800,70.4200,70.5050,1.73 M,03/20/13,0.06999999999999318,0.09938240931354181
PPG,70.8450,70.8550,69.7725,70.4350,1.73 M,03/19/13,-0.11499999999999488,-0.16300496102054554
PPG,69.5050,70.9300,69.3600,70.5500,1.34 M,03/18/13,-0.10000000000000853,-0.14154281670206442
